##TITLE= Lw0
##JCAMP-DX= 4.24
##DATA TYPE= ULTRAVIOLET SPECTRUM
##SAMPLE DESCRIPTION= $$
$$         13:27:40    24/03/27
##SPECTROMETER/DATA SYSTEM= Perkin-Elmer Lambda Series / PECSS
##DATE= 24/03/27
##XUNITS= NANOMETERS
##YUNITS= ABSORBANCE
##MAXY= 0.2151
##MINY= 0.0391
##XFACTOR= 1.00
##YFACTOR= 1.0000
##FIRSTX= 200.0
##LASTX= 800.0
##NPOINTS= 601
##FIRSTY= 0.2151
##XYDATA= (XY..XY)
200 0.2151
201 0.2039
202 0.1947
203 0.1852
204 0.1790
205 0.1695
206 0.1625
207 0.1548
208 0.1502
209 0.1449
210 0.1393
211 0.1362
212 0.1310
213 0.1261
214 0.1244
215 0.1215
216 0.1189
217 0.1150
218 0.1132
219 0.1115
220 0.1090
221 0.1067
222 0.1060
223 0.1046
224 0.1038
225 0.1019
226 0.1007
227 0.0999
228 0.0982
229 0.0977
230 0.0972
231 0.0950
232 0.0941
233 0.0931
234 0.0919
235 0.0916
236 0.0894
237 0.0889
238 0.0880
239 0.0875
240 0.0867
241 0.0856
242 0.0849
243 0.0841
244 0.0833
245 0.0822
246 0.0812
247 0.0811
248 0.0803
249 0.0802
250 0.0791
251 0.0780
252 0.0785
253 0.0776
254 0.0768
255 0.0764
256 0.0758
257 0.0746
258 0.0740
259 0.0740
260 0.0741
261 0.0731
262 0.0729
263 0.0719
264 0.0715
265 0.0715
266 0.0706
267 0.0706
268 0.0699
269 0.0701
270 0.0690
271 0.0684
272 0.0687
273 0.0681
274 0.0680
275 0.0681
276 0.0672
277 0.0674
278 0.0663
279 0.0662
280 0.0663
281 0.0657
282 0.0657
283 0.0647
284 0.0646
285 0.0648
286 0.0642
287 0.0644
288 0.0634
289 0.0631
290 0.0630
291 0.0626
292 0.0621
293 0.0616
294 0.0618
295 0.0612
296 0.0607
297 0.0609
298 0.0602
299 0.0607
300 0.0600
301 0.0592
302 0.0593
303 0.0592
304 0.0594
305 0.0591
306 0.0581
307 0.0586
308 0.0571
309 0.0579
310 0.0576
311 0.0573
312 0.0574
313 0.0563
314 0.0565
315 0.0567
316 0.0559
317 0.0562
318 0.0553
319 0.0562
320 0.0554
321 0.0554
322 0.0554
323 0.0550
324 0.0546
325 0.0541
326 0.0540
327 0.0541
328 0.0544
329 0.0540
330 0.0534
331 0.0536
332 0.0532
333 0.0535
334 0.0530
335 0.0524
336 0.0528
337 0.0529
338 0.0522
339 0.0520
340 0.0515
341 0.0523
342 0.0516
343 0.0517
344 0.0511
345 0.0512
346 0.0514
347 0.0513
348 0.0509
349 0.0506
350 0.0509
351 0.0507
352 0.0507
353 0.0500
354 0.0502
355 0.0502
356 0.0500
357 0.0498
358 0.0497
359 0.0496
360 0.0498
361 0.0497
362 0.0492
363 0.0493
364 0.0490
365 0.0493
366 0.0491
367 0.0494
368 0.0488
369 0.0484
370 0.0481
371 0.0484
372 0.0483
373 0.0479
374 0.0480
375 0.0482
376 0.0478
377 0.0478
378 0.0481
379 0.0481
380 0.0481
381 0.0478
382 0.0476
383 0.0476
384 0.0476
385 0.0476
386 0.0474
387 0.0474
388 0.0473
389 0.0472
390 0.0472
391 0.0471
392 0.0470
393 0.0473
394 0.0470
395 0.0466
396 0.0467
397 0.0473
398 0.0468
399 0.0467
400 0.0466
401 0.0467
402 0.0465
403 0.0466
404 0.0466
405 0.0467
406 0.0465
407 0.0466
408 0.0466
409 0.0463
410 0.0463
411 0.0459
412 0.0459
413 0.0457
414 0.0459
415 0.0458
416 0.0454
417 0.0455
418 0.0449
419 0.0451
420 0.0451
421 0.0451
422 0.0451
423 0.0450
424 0.0450
425 0.0451
426 0.0446
427 0.0446
428 0.0447
429 0.0445
430 0.0443
431 0.0444
432 0.0440
433 0.0441
434 0.0442
435 0.0438
436 0.0442
437 0.0440
438 0.0439
439 0.0437
440 0.0438
441 0.0439
442 0.0436
443 0.0435
444 0.0437
445 0.0436
446 0.0436
447 0.0435
448 0.0434
449 0.0435
450 0.0434
451 0.0435
452 0.0432
453 0.0433
454 0.0434
455 0.0430
456 0.0433
457 0.0431
458 0.0432
459 0.0430
460 0.0430
461 0.0430
462 0.0431
463 0.0430
464 0.0429
465 0.0429
466 0.0429
467 0.0429
468 0.0430
469 0.0428
470 0.0426
471 0.0426
472 0.0423
473 0.0425
474 0.0423
475 0.0425
476 0.0426
477 0.0422
478 0.0423
479 0.0423
480 0.0425
481 0.0424
482 0.0421
483 0.0421
484 0.0421
485 0.0421
486 0.0419
487 0.0419
488 0.0419
489 0.0423
490 0.0421
491 0.0420
492 0.0421
493 0.0420
494 0.0422
495 0.0422
496 0.0419
497 0.0420
498 0.0419
499 0.0421
500 0.0417
501 0.0416
502 0.0417
503 0.0417
504 0.0418
505 0.0415
506 0.0416
507 0.0415
508 0.0415
509 0.0415
510 0.0414
511 0.0417
512 0.0415
513 0.0414
514 0.0414
515 0.0414
516 0.0411
517 0.0415
518 0.0412
519 0.0411
520 0.0411
521 0.0411
522 0.0410
523 0.0412
524 0.0413
525 0.0409
526 0.0410
527 0.0410
528 0.0410
529 0.0410
530 0.0409
531 0.0407
532 0.0408
533 0.0408
534 0.0408
535 0.0410
536 0.0405
537 0.0407
538 0.0406
539 0.0409
540 0.0409
541 0.0406
542 0.0408
543 0.0408
544 0.0409
545 0.0408
546 0.0406
547 0.0407
548 0.0410
549 0.0410
550 0.0409
551 0.0406
552 0.0405
553 0.0406
554 0.0408
555 0.0407
556 0.0408
557 0.0409
558 0.0405
559 0.0410
560 0.0409
561 0.0406
562 0.0408
563 0.0410
564 0.0410
565 0.0407
566 0.0407
567 0.0408
568 0.0411
569 0.0411
570 0.0408
571 0.0409
572 0.0410
573 0.0410
574 0.0410
575 0.0411
576 0.0412
577 0.0413
578 0.0413
579 0.0413
580 0.0414
581 0.0415
582 0.0415
583 0.0416
584 0.0416
585 0.0414
586 0.0416
587 0.0418
588 0.0416
589 0.0416
590 0.0415
591 0.0419
592 0.0414
593 0.0414
594 0.0417
595 0.0421
596 0.0419
597 0.0421
598 0.0422
599 0.0422
600 0.0422
601 0.0426
602 0.0425
603 0.0425
604 0.0430
605 0.0428
606 0.0427
607 0.0430
608 0.0431
609 0.0432
610 0.0429
611 0.0434
612 0.0435
613 0.0436
614 0.0441
615 0.0440
616 0.0439
617 0.0443
618 0.0441
619 0.0445
620 0.0444
621 0.0448
622 0.0448
623 0.0444
624 0.0444
625 0.0448
626 0.0445
627 0.0448
628 0.0446
629 0.0444
630 0.0446
631 0.0444
632 0.0443
633 0.0446
634 0.0447
635 0.0445
636 0.0443
637 0.0439
638 0.0439
639 0.0434
640 0.0436
641 0.0439
642 0.0434
643 0.0432
644 0.0429
645 0.0423
646 0.0424
647 0.0424
648 0.0416
649 0.0414
650 0.0414
651 0.0417
652 0.0415
653 0.0413
654 0.0412
655 0.0409
656 0.0408
657 0.0410
658 0.0406
659 0.0403
660 0.0406
661 0.0403
662 0.0403
663 0.0403
664 0.0398
665 0.0398
666 0.0400
667 0.0402
668 0.0397
669 0.0394
670 0.0394
671 0.0393
672 0.0393
673 0.0395
674 0.0397
675 0.0396
676 0.0393
677 0.0394
678 0.0394
679 0.0391
680 0.0397
681 0.0395
682 0.0400
683 0.0393
684 0.0395
685 0.0396
686 0.0391
687 0.0398
688 0.0393
689 0.0394
690 0.0400
691 0.0396
692 0.0396
693 0.0398
694 0.0404
695 0.0399
696 0.0396
697 0.0396
698 0.0399
699 0.0402
700 0.0400
701 0.0404
702 0.0397
703 0.0399
704 0.0403
705 0.0401
706 0.0399
707 0.0402
708 0.0402
709 0.0402
710 0.0407
711 0.0410
712 0.0411
713 0.0413
714 0.0408
715 0.0416
716 0.0418
717 0.0420
718 0.0418
719 0.0429
720 0.0424
721 0.0428
722 0.0425
723 0.0429
724 0.0433
725 0.0429
726 0.0435
727 0.0441
728 0.0444
729 0.0449
730 0.0455
731 0.0463
732 0.0467
733 0.0471
734 0.0482
735 0.0480
736 0.0479
737 0.0486
738 0.0482
739 0.0489
740 0.0486
741 0.0490
742 0.0491
743 0.0491
744 0.0483
745 0.0486
746 0.0488
747 0.0490
748 0.0488
749 0.0488
750 0.0482
751 0.0488
752 0.0484
753 0.0493
754 0.0484
755 0.0492
756 0.0484
757 0.0481
758 0.0481
759 0.0484
760 0.0484
761 0.0479
762 0.0489
763 0.0496
764 0.0482
765 0.0487
766 0.0486
767 0.0484
768 0.0491
769 0.0487
770 0.0486
771 0.0483
772 0.0481
773 0.0484
774 0.0483
775 0.0483
776 0.0496
777 0.0481
778 0.0478
779 0.0476
780 0.0479
781 0.0470
782 0.0478
783 0.0475
784 0.0477
785 0.0472
786 0.0471
787 0.0468
788 0.0464
789 0.0465
790 0.0463
791 0.0460
792 0.0459
793 0.0457
794 0.0470
795 0.0467
796 0.0464
797 0.0455
798 0.0462
799 0.0463
800 0.0463
##END=