##TITLE= Lw005
##JCAMP-DX= 4.24
##DATA TYPE= ULTRAVIOLET SPECTRUM
##SAMPLE DESCRIPTION= $$
$$         13:34:27    24/03/27
##SPECTROMETER/DATA SYSTEM= Perkin-Elmer Lambda Series / PECSS
##DATE= 24/03/27
##XUNITS= NANOMETERS
##YUNITS= ABSORBANCE
##MAXY= 2.4482
##MINY= 0.0454
##XFACTOR= 1.00
##YFACTOR= 1.0000
##FIRSTX= 200.0
##LASTX= 800.0
##NPOINTS= 601
##FIRSTY= 1.3736
##XYDATA= (XY..XY)
200 1.3736
201 1.3793
202 1.3913
203 1.4225
204 1.4285
205 1.4137
206 1.3989
207 1.3952
208 1.3935
209 1.3719
210 1.3483
211 1.3323
212 1.3144
213 1.2887
214 1.2604
215 1.2313
216 1.1974
217 1.1602
218 1.1195
219 1.0773
220 1.0335
221 0.9883
222 0.9412
223 0.8925
224 0.8424
225 0.7925
226 0.7481
227 0.7087
228 0.6744
229 0.6437
230 0.6152
231 0.5882
232 0.5649
233 0.5428
234 0.5226
235 0.5056
236 0.4883
237 0.4728
238 0.4585
239 0.4461
240 0.4346
241 0.4267
242 0.4208
243 0.4168
244 0.4150
245 0.4141
246 0.4139
247 0.4153
248 0.4157
249 0.4175
250 0.4176
251 0.4177
252 0.4178
253 0.4161
254 0.4144
255 0.4105
256 0.4056
257 0.3992
258 0.3920
259 0.3848
260 0.3765
261 0.3671
262 0.3588
263 0.3495
264 0.3412
265 0.3326
266 0.3243
267 0.3167
268 0.3089
269 0.3017
270 0.2946
271 0.2887
272 0.2838
273 0.2786
274 0.2744
275 0.2702
276 0.2664
277 0.2637
278 0.2598
279 0.2585
280 0.2566
281 0.2562
282 0.2567
283 0.2578
284 0.2606
285 0.2636
286 0.2672
287 0.2711
288 0.2755
289 0.2808
290 0.2855
291 0.2913
292 0.2961
293 0.3010
294 0.3072
295 0.3119
296 0.3179
297 0.3235
298 0.3287
299 0.3353
300 0.3407
301 0.3464
302 0.3523
303 0.3572
304 0.3613
305 0.3641
306 0.3659
307 0.3668
308 0.3653
309 0.3645
310 0.3610
311 0.3576
312 0.3515
313 0.3449
314 0.3375
315 0.3284
316 0.3190
317 0.3073
318 0.2954
319 0.2849
320 0.2704
321 0.2557
322 0.2406
323 0.2255
324 0.2107
325 0.1961
326 0.1826
327 0.1707
328 0.1600
329 0.1499
330 0.1404
331 0.1336
332 0.1269
333 0.1212
334 0.1159
335 0.1119
336 0.1082
337 0.1051
338 0.1018
339 0.0993
340 0.0977
341 0.0967
342 0.0949
343 0.0939
344 0.0935
345 0.0930
346 0.0929
347 0.0929
348 0.0927
349 0.0931
350 0.0940
351 0.0951
352 0.0956
353 0.0964
354 0.0980
355 0.0995
356 0.1008
357 0.1026
358 0.1044
359 0.1063
360 0.1086
361 0.1105
362 0.1125
363 0.1148
364 0.1169
365 0.1192
366 0.1220
367 0.1246
368 0.1268
369 0.1296
370 0.1328
371 0.1361
372 0.1401
373 0.1444
374 0.1493
375 0.1543
376 0.1594
377 0.1645
378 0.1708
379 0.1778
380 0.1833
381 0.1888
382 0.1942
383 0.1995
384 0.2042
385 0.2082
386 0.2126
387 0.2160
388 0.2188
389 0.2215
390 0.2241
391 0.2271
392 0.2297
393 0.2332
394 0.2368
395 0.2411
396 0.2459
397 0.2523
398 0.2590
399 0.2665
400 0.2738
401 0.2820
402 0.2899
403 0.2976
404 0.3048
405 0.3105
406 0.3143
407 0.3168
408 0.3172
409 0.3155
410 0.3118
411 0.3056
412 0.2986
413 0.2892
414 0.2786
415 0.2665
416 0.2541
417 0.2413
418 0.2280
419 0.2151
420 0.2016
421 0.1883
422 0.1760
423 0.1644
424 0.1534
425 0.1426
426 0.1328
427 0.1243
428 0.1159
429 0.1082
430 0.1011
431 0.0950
432 0.0897
433 0.0846
434 0.0802
435 0.0764
436 0.0730
437 0.0703
438 0.0677
439 0.0651
440 0.0633
441 0.0617
442 0.0599
443 0.0587
444 0.0577
445 0.0570
446 0.0564
447 0.0553
448 0.0548
449 0.0547
450 0.0545
451 0.0541
452 0.0539
453 0.0535
454 0.0536
455 0.0533
456 0.0533
457 0.0536
458 0.0533
459 0.0534
460 0.0536
461 0.0537
462 0.0537
463 0.0540
464 0.0541
465 0.0541
466 0.0542
467 0.0548
468 0.0547
469 0.0550
470 0.0553
471 0.0553
472 0.0555
473 0.0561
474 0.0565
475 0.0568
476 0.0570
477 0.0575
478 0.0579
479 0.0585
480 0.0588
481 0.0594
482 0.0597
483 0.0600
484 0.0606
485 0.0614
486 0.0617
487 0.0623
488 0.0629
489 0.0641
490 0.0644
491 0.0653
492 0.0661
493 0.0669
494 0.0679
495 0.0688
496 0.0696
497 0.0705
498 0.0715
499 0.0728
500 0.0736
501 0.0748
502 0.0761
503 0.0774
504 0.0790
505 0.0802
506 0.0818
507 0.0833
508 0.0850
509 0.0869
510 0.0886
511 0.0906
512 0.0922
513 0.0944
514 0.0965
515 0.0986
516 0.1009
517 0.1036
518 0.1060
519 0.1086
520 0.1113
521 0.1142
522 0.1174
523 0.1205
524 0.1240
525 0.1269
526 0.1304
527 0.1340
528 0.1380
529 0.1419
530 0.1458
531 0.1499
532 0.1542
533 0.1590
534 0.1636
535 0.1681
536 0.1728
537 0.1781
538 0.1837
539 0.1893
540 0.1948
541 0.2007
542 0.2071
543 0.2134
544 0.2200
545 0.2271
546 0.2343
547 0.2420
548 0.2503
549 0.2585
550 0.2677
551 0.2766
552 0.2862
553 0.2966
554 0.3073
555 0.3184
556 0.3306
557 0.3432
558 0.3558
559 0.3697
560 0.3837
561 0.3983
562 0.4138
563 0.4292
564 0.4456
565 0.4621
566 0.4791
567 0.4967
568 0.5144
569 0.5323
570 0.5502
571 0.5691
572 0.5867
573 0.6049
574 0.6230
575 0.6411
576 0.6586
577 0.6760
578 0.6932
579 0.7098
580 0.7268
581 0.7435
582 0.7585
583 0.7742
584 0.7900
585 0.8056
586 0.8209
587 0.8363
588 0.8521
589 0.8688
590 0.8850
591 0.9030
592 0.9203
593 0.9402
594 0.9604
595 0.9830
596 1.0064
597 1.0322
598 1.0590
599 1.0883
600 1.1198
601 1.1533
602 1.1890
603 1.2290
604 1.2698
605 1.3134
606 1.3598
607 1.4088
608 1.4597
609 1.5140
610 1.5690
611 1.6281
612 1.6848
613 1.7469
614 1.8096
615 1.8708
616 1.9326
617 1.9950
618 2.0552
619 2.1143
620 2.1686
621 2.2227
622 2.2700
623 2.3175
624 2.3575
625 2.3875
626 2.4130
627 2.4323
628 2.4417
629 2.4482
630 2.4382
631 2.4245
632 2.3995
633 2.3696
634 2.3247
635 2.2748
636 2.2200
637 2.1581
638 2.0855
639 2.0105
640 1.9307
641 1.8485
642 1.7621
643 1.6754
644 1.5878
645 1.4994
646 1.4134
647 1.3274
648 1.2434
649 1.1626
650 1.0846
651 1.0102
652 0.9386
653 0.8705
654 0.8064
655 0.7463
656 0.6897
657 0.6367
658 0.5873
659 0.5416
660 0.4993
661 0.4600
662 0.4237
663 0.3903
664 0.3594
665 0.3309
666 0.3056
667 0.2820
668 0.2600
669 0.2395
670 0.2219
671 0.2060
672 0.1910
673 0.1771
674 0.1645
675 0.1535
676 0.1440
677 0.1348
678 0.1259
679 0.1178
680 0.1109
681 0.1048
682 0.0998
683 0.0939
684 0.0892
685 0.0850
686 0.0808
687 0.0776
688 0.0744
689 0.0714
690 0.0692
691 0.0665
692 0.0642
693 0.0621
694 0.0609
695 0.0585
696 0.0571
697 0.0560
698 0.0551
699 0.0535
700 0.0527
701 0.0517
702 0.0505
703 0.0500
704 0.0497
705 0.0488
706 0.0481
707 0.0481
708 0.0477
709 0.0470
710 0.0466
711 0.0469
712 0.0467
713 0.0466
714 0.0457
715 0.0461
716 0.0454
717 0.0458
718 0.0455
719 0.0458
720 0.0456
721 0.0457
722 0.0456
723 0.0460
724 0.0460
725 0.0463
726 0.0463
727 0.0463
728 0.0469
729 0.0473
730 0.0476
731 0.0486
732 0.0485
733 0.0491
734 0.0498
735 0.0502
736 0.0503
737 0.0503
738 0.0501
739 0.0506
740 0.0502
741 0.0506
742 0.0508
743 0.0508
744 0.0501
745 0.0506
746 0.0500
747 0.0501
748 0.0502
749 0.0502
750 0.0497
751 0.0504
752 0.0500
753 0.0503
754 0.0495
755 0.0504
756 0.0498
757 0.0497
758 0.0493
759 0.0496
760 0.0500
761 0.0493
762 0.0502
763 0.0508
764 0.0493
765 0.0495
766 0.0500
767 0.0500
768 0.0500
769 0.0506
770 0.0500
771 0.0502
772 0.0488
773 0.0496
774 0.0491
775 0.0489
776 0.0494
777 0.0490
778 0.0483
779 0.0487
780 0.0495
781 0.0487
782 0.0484
783 0.0488
784 0.0488
785 0.0486
786 0.0482
787 0.0473
788 0.0476
789 0.0485
790 0.0476
791 0.0478
792 0.0473
793 0.0475
794 0.0477
795 0.0476
796 0.0475
797 0.0470
798 0.0476
799 0.0475
800 0.0475
##END=