##TITLE= Lw020
##JCAMP-DX= 4.24
##DATA TYPE= ULTRAVIOLET SPECTRUM
##SAMPLE DESCRIPTION= $$
$$         13:50:32    24/03/27
##SPECTROMETER/DATA SYSTEM= Perkin-Elmer Lambda Series / PECSS
##DATE= 24/03/27
##XUNITS= NANOMETERS
##YUNITS= ABSORBANCE
##MAXY= 4.0305
##MINY= 0.0526
##XFACTOR= 1.00
##YFACTOR= 1.0000
##FIRSTX= 200.0
##LASTX= 800.0
##NPOINTS= 601
##FIRSTY= 1.4242
##XYDATA= (XY..XY)
200 1.4242
201 1.5290
202 1.6066
203 1.7299
204 1.8410
205 1.9042
206 1.9804
207 2.1238
208 2.1636
209 2.2256
210 2.2908
211 2.3848
212 2.4649
213 2.5817
214 2.5846
215 2.6755
216 2.7085
217 2.7631
218 2.7851
219 2.7699
220 2.8241
221 2.8479
222 2.8260
223 2.7442
224 2.5944
225 2.4813
226 2.3549
227 2.2529
228 2.1519
229 2.0644
230 1.9836
231 1.9086
232 1.8420
233 1.7852
234 1.7363
235 1.6936
236 1.6528
237 1.6226
238 1.5930
239 1.5671
240 1.5489
241 1.5370
242 1.5327
243 1.5364
244 1.5429
245 1.5548
246 1.5664
247 1.5804
248 1.5977
249 1.6104
250 1.6225
251 1.6315
252 1.6368
253 1.6367
254 1.6329
255 1.6247
256 1.6079
257 1.5852
258 1.5579
259 1.5268
260 1.4933
261 1.4546
262 1.4152
263 1.3762
264 1.3365
265 1.2970
266 1.2572
267 1.2186
268 1.1804
269 1.1418
270 1.1069
271 1.0737
272 1.0439
273 1.0158
274 0.9882
275 0.9617
276 0.9372
277 0.9170
278 0.8980
279 0.8832
280 0.8717
281 0.8639
282 0.8604
283 0.8605
284 0.8647
285 0.8724
286 0.8818
287 0.8939
288 0.9073
289 0.9233
290 0.9403
291 0.9574
292 0.9769
293 0.9957
294 1.0165
295 1.0363
296 1.0564
297 1.0775
298 1.0985
299 1.1215
300 1.1436
301 1.1656
302 1.1877
303 1.2058
304 1.2228
305 1.2358
306 1.2433
307 1.2474
308 1.2455
309 1.2407
310 1.2311
311 1.2159
312 1.1964
313 1.1735
314 1.1437
315 1.1116
316 1.0755
317 1.0331
318 0.9886
319 0.9424
320 0.8890
321 0.8341
322 0.7768
323 0.7198
324 0.6632
325 0.6085
326 0.5581
327 0.5126
328 0.4709
329 0.4330
330 0.4002
331 0.3713
332 0.3463
333 0.3247
334 0.3052
335 0.2883
336 0.2746
337 0.2620
338 0.2514
339 0.2421
340 0.2357
341 0.2303
342 0.2257
343 0.2223
344 0.2203
345 0.2188
346 0.2186
347 0.2186
348 0.2195
349 0.2210
350 0.2240
351 0.2272
352 0.2309
353 0.2351
354 0.2407
355 0.2466
356 0.2531
357 0.2596
358 0.2665
359 0.2744
360 0.2825
361 0.2907
362 0.2987
363 0.3073
364 0.3166
365 0.3253
366 0.3349
367 0.3454
368 0.3557
369 0.3672
370 0.3794
371 0.3934
372 0.4084
373 0.4244
374 0.4433
375 0.4623
376 0.4824
377 0.5040
378 0.5269
379 0.5515
380 0.5743
381 0.5967
382 0.6177
383 0.6377
384 0.6565
385 0.6733
386 0.6888
387 0.7025
388 0.7150
389 0.7265
390 0.7377
391 0.7484
392 0.7598
393 0.7724
394 0.7870
395 0.8038
396 0.8236
397 0.8457
398 0.8712
399 0.8984
400 0.9275
401 0.9590
402 0.9897
403 1.0190
404 1.0460
405 1.0691
406 1.0853
407 1.0958
408 1.0994
409 1.0940
410 1.0807
411 1.0591
412 1.0313
413 0.9978
414 0.9587
415 0.9149
416 0.8680
417 0.8188
418 0.7687
419 0.7188
420 0.6691
421 0.6200
422 0.5731
423 0.5275
424 0.4847
425 0.4441
426 0.4065
427 0.3714
428 0.3393
429 0.3097
430 0.2829
431 0.2586
432 0.2368
433 0.2177
434 0.2000
435 0.1845
436 0.1712
437 0.1593
438 0.1489
439 0.1398
440 0.1321
441 0.1256
442 0.1196
443 0.1145
444 0.1104
445 0.1066
446 0.1038
447 0.1013
448 0.0990
449 0.0979
450 0.0965
451 0.0952
452 0.0943
453 0.0938
454 0.0937
455 0.0934
456 0.0932
457 0.0934
458 0.0933
459 0.0938
460 0.0944
461 0.0947
462 0.0952
463 0.0959
464 0.0966
465 0.0972
466 0.0979
467 0.0993
468 0.0999
469 0.1010
470 0.1022
471 0.1032
472 0.1045
473 0.1060
474 0.1072
475 0.1088
476 0.1102
477 0.1117
478 0.1135
479 0.1152
480 0.1169
481 0.1188
482 0.1208
483 0.1227
484 0.1247
485 0.1272
486 0.1293
487 0.1318
488 0.1343
489 0.1374
490 0.1399
491 0.1428
492 0.1462
493 0.1493
494 0.1530
495 0.1563
496 0.1599
497 0.1637
498 0.1680
499 0.1722
500 0.1762
501 0.1806
502 0.1857
503 0.1908
504 0.1962
505 0.2015
506 0.2075
507 0.2133
508 0.2196
509 0.2260
510 0.2328
511 0.2404
512 0.2477
513 0.2553
514 0.2635
515 0.2719
516 0.2808
517 0.2904
518 0.2999
519 0.3100
520 0.3203
521 0.3313
522 0.3428
523 0.3549
524 0.3673
525 0.3800
526 0.3935
527 0.4073
528 0.4220
529 0.4370
530 0.4522
531 0.4683
532 0.4849
533 0.5025
534 0.5200
535 0.5386
536 0.5574
537 0.5773
538 0.5978
539 0.6191
540 0.6412
541 0.6643
542 0.6882
543 0.7129
544 0.7388
545 0.7659
546 0.7933
547 0.8227
548 0.8542
549 0.8858
550 0.9196
551 0.9552
552 0.9918
553 1.0311
554 1.0717
555 1.1147
556 1.1603
557 1.2064
558 1.2565
559 1.3078
560 1.3619
561 1.4195
562 1.4767
563 1.5350
564 1.5968
565 1.6588
566 1.7256
567 1.7906
568 1.8572
569 1.9271
570 1.9969
571 2.0665
572 2.1366
573 2.2039
574 2.2774
575 2.3476
576 2.4183
577 2.4895
578 2.5534
579 2.6081
580 2.6722
581 2.7433
582 2.7989
583 2.8469
584 2.9246
585 2.9843
586 3.0329
587 3.0651
588 3.1353
589 3.1840
590 3.2271
591 3.2725
592 3.3375
593 3.3503
594 3.4146
595 3.4734
596 3.5862
597 3.5943
598 3.5592
599 3.6589
600 3.6871
601 3.6379
602 3.7104
603 3.7010
604 3.7454
605 3.7685
606 3.8985
607 3.7828
608 3.7794
609 3.7657
610 3.8392
611 3.7680
612 3.8082
613 3.7733
614 3.7834
615 3.7708
616 3.8493
617 3.8657
618 3.8089
619 3.9007
620 3.8149
621 3.8105
622 3.8463
623 3.7556
624 3.7312
625 3.7889
626 3.8462
627 3.7845
628 3.7119
629 3.7284
630 3.7574
631 4.0305
632 3.8852
633 3.8485
634 3.7598
635 3.7314
636 3.8095
637 3.7313
638 3.7422
639 3.7536
640 3.7701
641 3.7438
642 3.6681
643 3.6931
644 3.8248
645 3.8144
646 3.8201
647 3.6786
648 3.6991
649 3.6836
650 3.5019
651 3.4250
652 3.2749
653 3.1554
654 2.9701
655 2.7784
656 2.5650
657 2.3813
658 2.2029
659 2.0328
660 1.8728
661 1.7249
662 1.5882
663 1.4602
664 1.3421
665 1.2331
666 1.1320
667 1.0396
668 0.9538
669 0.8753
670 0.8037
671 0.7374
672 0.6773
673 0.6219
674 0.5713
675 0.5248
676 0.4829
677 0.4449
678 0.4096
679 0.3775
680 0.3481
681 0.3213
682 0.2973
683 0.2746
684 0.2547
685 0.2364
686 0.2196
687 0.2046
688 0.1912
689 0.1785
690 0.1671
691 0.1564
692 0.1470
693 0.1387
694 0.1313
695 0.1237
696 0.1170
697 0.1112
698 0.1063
699 0.1011
700 0.0968
701 0.0925
702 0.0890
703 0.0857
704 0.0825
705 0.0794
706 0.0769
707 0.0753
708 0.0732
709 0.0706
710 0.0690
711 0.0678
712 0.0664
713 0.0657
714 0.0639
715 0.0630
716 0.0620
717 0.0614
718 0.0608
719 0.0602
720 0.0588
721 0.0587
722 0.0581
723 0.0580
724 0.0575
725 0.0575
726 0.0570
727 0.0568
728 0.0570
729 0.0571
730 0.0569
731 0.0574
732 0.0579
733 0.0580
734 0.0583
735 0.0583
736 0.0583
737 0.0584
738 0.0578
739 0.0582
740 0.0581
741 0.0581
742 0.0584
743 0.0583
744 0.0580
745 0.0568
746 0.0568
747 0.0574
748 0.0574
749 0.0572
750 0.0564
751 0.0568
752 0.0567
753 0.0571
754 0.0564
755 0.0568
756 0.0563
757 0.0561
758 0.0563
759 0.0561
760 0.0564
761 0.0564
762 0.0568
763 0.0571
764 0.0558
765 0.0563
766 0.0559
767 0.0567
768 0.0556
769 0.0563
770 0.0563
771 0.0558
772 0.0556
773 0.0553
774 0.0556
775 0.0549
776 0.0559
777 0.0550
778 0.0552
779 0.0555
780 0.0553
781 0.0548
782 0.0547
783 0.0547
784 0.0549
785 0.0543
786 0.0542
787 0.0536
788 0.0534
789 0.0540
790 0.0540
791 0.0535
792 0.0536
793 0.0532
794 0.0539
795 0.0535
796 0.0527
797 0.0532
798 0.0533
799 0.0526
800 0.0530
##END=