##TITLE= Lw1
##JCAMP-DX= 4.24
##DATA TYPE= ULTRAVIOLET SPECTRUM
##SAMPLE DESCRIPTION= $$
$$         13:39:29    24/03/27
##SPECTROMETER/DATA SYSTEM= Perkin-Elmer Lambda Series / PECSS
##DATE= 24/03/27
##XUNITS= NANOMETERS
##YUNITS= ABSORBANCE
##MAXY= 3.8430
##MINY= 0.0480
##XFACTOR= 1.00
##YFACTOR= 1.0000
##FIRSTX= 200.0
##LASTX= 800.0
##NPOINTS= 601
##FIRSTY= 1.4499
##XYDATA= (XY..XY)
200 1.4499
201 1.5251
202 1.5836
203 1.6606
204 1.7464
205 1.8298
206 1.9318
207 1.9424
208 2.0016
209 2.0180
210 2.0918
211 2.1075
212 2.0984
213 2.1001
214 2.0769
215 2.0605
216 2.0300
217 1.9765
218 1.9207
219 1.8537
220 1.7855
221 1.7108
222 1.6339
223 1.5469
224 1.4622
225 1.3800
226 1.3064
227 1.2403
228 1.1832
229 1.1315
230 1.0855
231 1.0428
232 1.0065
233 0.9740
234 0.9446
235 0.9183
236 0.8929
237 0.8717
238 0.8523
239 0.8354
240 0.8224
241 0.8143
242 0.8089
243 0.8082
244 0.8089
245 0.8131
246 0.8172
247 0.8233
248 0.8281
249 0.8336
250 0.8384
251 0.8409
252 0.8417
253 0.8413
254 0.8371
255 0.8305
256 0.8213
257 0.8081
258 0.7931
259 0.7767
260 0.7585
261 0.7389
262 0.7187
263 0.6979
264 0.6768
265 0.6564
266 0.6353
267 0.6147
268 0.5950
269 0.5747
270 0.5570
271 0.5395
272 0.5239
273 0.5096
274 0.4948
275 0.4815
276 0.4691
277 0.4594
278 0.4500
279 0.4418
280 0.4365
281 0.4326
282 0.4307
283 0.4307
284 0.4334
285 0.4380
286 0.4430
287 0.4496
288 0.4569
289 0.4648
290 0.4735
291 0.4826
292 0.4921
293 0.5016
294 0.5115
295 0.5211
296 0.5314
297 0.5418
298 0.5518
299 0.5623
300 0.5743
301 0.5839
302 0.5944
303 0.6037
304 0.6115
305 0.6163
306 0.6198
307 0.6214
308 0.6205
309 0.6177
310 0.6132
311 0.6052
312 0.5957
313 0.5840
314 0.5700
315 0.5550
316 0.5371
317 0.5178
318 0.4962
319 0.4763
320 0.4498
321 0.4231
322 0.3957
323 0.3688
324 0.3418
325 0.3156
326 0.2919
327 0.2702
328 0.2501
329 0.2323
330 0.2165
331 0.2032
332 0.1916
333 0.1811
334 0.1718
335 0.1638
336 0.1571
337 0.1516
338 0.1458
339 0.1416
340 0.1382
341 0.1364
342 0.1339
343 0.1322
344 0.1309
345 0.1299
346 0.1303
347 0.1299
348 0.1303
349 0.1305
350 0.1321
351 0.1338
352 0.1353
353 0.1367
354 0.1399
355 0.1427
356 0.1455
357 0.1487
358 0.1516
359 0.1557
360 0.1592
361 0.1629
362 0.1669
363 0.1709
364 0.1749
365 0.1794
366 0.1840
367 0.1891
368 0.1931
369 0.1981
370 0.2042
371 0.2108
372 0.2180
373 0.2255
374 0.2341
375 0.2435
376 0.2530
377 0.2630
378 0.2739
379 0.2854
380 0.2959
381 0.3062
382 0.3160
383 0.3255
384 0.3344
385 0.3423
386 0.3496
387 0.3561
388 0.3615
389 0.3662
390 0.3714
391 0.3763
392 0.3817
393 0.3880
394 0.3944
395 0.4022
396 0.4115
397 0.4226
398 0.4346
399 0.4476
400 0.4619
401 0.4766
402 0.4910
403 0.5052
404 0.5178
405 0.5286
406 0.5357
407 0.5407
408 0.5417
409 0.5387
410 0.5320
411 0.5214
412 0.5081
413 0.4916
414 0.4731
415 0.4517
416 0.4292
417 0.4056
418 0.3815
419 0.3578
420 0.3338
421 0.3103
422 0.2881
423 0.2666
424 0.2463
425 0.2273
426 0.2095
427 0.1932
428 0.1778
429 0.1641
430 0.1514
431 0.1403
432 0.1303
433 0.1216
434 0.1134
435 0.1061
436 0.1000
437 0.0946
438 0.0897
439 0.0855
440 0.0816
441 0.0789
442 0.0757
443 0.0738
444 0.0723
445 0.0705
446 0.0689
447 0.0679
448 0.0670
449 0.0665
450 0.0656
451 0.0651
452 0.0647
453 0.0646
454 0.0647
455 0.0639
456 0.0641
457 0.0644
458 0.0642
459 0.0643
460 0.0643
461 0.0647
462 0.0648
463 0.0651
464 0.0657
465 0.0659
466 0.0659
467 0.0669
468 0.0670
469 0.0676
470 0.0683
471 0.0685
472 0.0690
473 0.0698
474 0.0704
475 0.0711
476 0.0717
477 0.0722
478 0.0732
479 0.0741
480 0.0749
481 0.0755
482 0.0768
483 0.0774
484 0.0784
485 0.0795
486 0.0806
487 0.0816
488 0.0829
489 0.0846
490 0.0858
491 0.0870
492 0.0881
493 0.0899
494 0.0917
495 0.0931
496 0.0947
497 0.0968
498 0.0987
499 0.1007
500 0.1024
501 0.1046
502 0.1068
503 0.1092
504 0.1120
505 0.1144
506 0.1172
507 0.1202
508 0.1230
509 0.1263
510 0.1293
511 0.1333
512 0.1365
513 0.1400
514 0.1440
515 0.1481
516 0.1521
517 0.1567
518 0.1612
519 0.1661
520 0.1708
521 0.1761
522 0.1819
523 0.1875
524 0.1934
525 0.1993
526 0.2056
527 0.2122
528 0.2191
529 0.2261
530 0.2332
531 0.2411
532 0.2488
533 0.2572
534 0.2655
535 0.2739
536 0.2828
537 0.2922
538 0.3018
539 0.3119
540 0.3224
541 0.3334
542 0.3445
543 0.3563
544 0.3685
545 0.3812
546 0.3944
547 0.4079
548 0.4229
549 0.4381
550 0.4539
551 0.4710
552 0.4883
553 0.5070
554 0.5266
555 0.5465
556 0.5681
557 0.5905
558 0.6137
559 0.6389
560 0.6645
561 0.6907
562 0.7186
563 0.7465
564 0.7765
565 0.8063
566 0.8368
567 0.8686
568 0.9012
569 0.9339
570 0.9669
571 1.0005
572 1.0335
573 1.0665
574 1.0999
575 1.1324
576 1.1650
577 1.1970
578 1.2286
579 1.2606
580 1.2903
581 1.3202
582 1.3505
583 1.3799
584 1.4085
585 1.4377
586 1.4668
587 1.4955
588 1.5241
589 1.5546
590 1.5847
591 1.6168
592 1.6493
593 1.6849
594 1.7202
595 1.7607
596 1.8032
597 1.8471
598 1.8942
599 1.9495
600 2.0034
601 2.0623
602 2.1254
603 2.1988
604 2.2681
605 2.3433
606 2.4152
607 2.5008
608 2.5951
609 2.6967
610 2.7833
611 2.8857
612 2.9570
613 3.0579
614 3.1573
615 3.2690
616 3.3517
617 3.3693
618 3.4647
619 3.6155
620 3.4736
621 3.5149
622 3.5368
623 3.5236
624 3.5275
625 3.5891
626 3.6140
627 3.8142
628 3.8430
629 3.6415
630 3.5900
631 3.7327
632 3.7965
633 3.8214
634 3.7042
635 3.6233
636 3.5112
637 3.5551
638 3.4391
639 3.3919
640 3.3040
641 3.1678
642 3.0678
643 2.9362
644 2.7971
645 2.6446
646 2.5076
647 2.3658
648 2.2166
649 2.0734
650 1.9341
651 1.8011
652 1.6738
653 1.5529
654 1.4378
655 1.3298
656 1.2290
657 1.1343
658 1.0453
659 0.9630
660 0.8863
661 0.8147
662 0.7494
663 0.6888
664 0.6323
665 0.5813
666 0.5343
667 0.4911
668 0.4510
669 0.4147
670 0.3816
671 0.3516
672 0.3238
673 0.2985
674 0.2757
675 0.2546
676 0.2360
677 0.2186
678 0.2025
679 0.1886
680 0.1756
681 0.1634
682 0.1530
683 0.1430
684 0.1343
685 0.1262
686 0.1186
687 0.1118
688 0.1061
689 0.1005
690 0.0960
691 0.0909
692 0.0869
693 0.0830
694 0.0806
695 0.0771
696 0.0734
697 0.0715
698 0.0691
699 0.0669
700 0.0648
701 0.0635
702 0.0616
703 0.0599
704 0.0590
705 0.0575
706 0.0560
707 0.0558
708 0.0554
709 0.0538
710 0.0531
711 0.0531
712 0.0524
713 0.0514
714 0.0510
715 0.0508
716 0.0501
717 0.0503
718 0.0499
719 0.0501
720 0.0493
721 0.0497
722 0.0493
723 0.0493
724 0.0498
725 0.0496
726 0.0495
727 0.0496
728 0.0500
729 0.0505
730 0.0504
731 0.0515
732 0.0517
733 0.0517
734 0.0522
735 0.0524
736 0.0524
737 0.0527
738 0.0522
739 0.0527
740 0.0526
741 0.0533
742 0.0529
743 0.0529
744 0.0524
745 0.0521
746 0.0518
747 0.0524
748 0.0522
749 0.0525
750 0.0522
751 0.0523
752 0.0521
753 0.0528
754 0.0519
755 0.0523
756 0.0523
757 0.0512
758 0.0520
759 0.0519
760 0.0520
761 0.0520
762 0.0521
763 0.0528
764 0.0514
765 0.0521
766 0.0510
767 0.0518
768 0.0515
769 0.0518
770 0.0516
771 0.0519
772 0.0511
773 0.0508
774 0.0506
775 0.0507
776 0.0512
777 0.0508
778 0.0503
779 0.0505
780 0.0505
781 0.0500
782 0.0503
783 0.0504
784 0.0503
785 0.0501
786 0.0496
787 0.0493
788 0.0488
789 0.0493
790 0.0495
791 0.0494
792 0.0480
793 0.0488
794 0.0494
795 0.0498
796 0.0492
797 0.0486
798 0.0491
799 0.0493
800 0.0489
##END=