##TITLE= Lw15
##JCAMP-DX= 4.24
##DATA TYPE= ULTRAVIOLET SPECTRUM
##SAMPLE DESCRIPTION= $$
$$         13:45:06    24/03/27
##SPECTROMETER/DATA SYSTEM= Perkin-Elmer Lambda Series / PECSS
##DATE= 24/03/27
##XUNITS= NANOMETERS
##YUNITS= ABSORBANCE
##MAXY= 3.9495
##MINY= 0.0495
##XFACTOR= 1.00
##YFACTOR= 1.0000
##FIRSTX= 200.0
##LASTX= 800.0
##NPOINTS= 601
##FIRSTY= 1.4597
##XYDATA= (XY..XY)
200 1.4597
201 1.4913
202 1.5834
203 1.6574
204 1.7568
205 1.8453
206 1.9951
207 2.0719
208 2.1951
209 2.2492
210 2.3011
211 2.3956
212 2.4533
213 2.4841
214 2.5748
215 2.6520
216 2.6923
217 2.6645
218 2.6474
219 2.6395
220 2.6164
221 2.5481
222 2.4858
223 2.3942
224 2.2850
225 2.1578
226 2.0472
227 1.9492
228 1.8660
229 1.7840
230 1.7137
231 1.6421
232 1.5794
233 1.5246
234 1.4758
235 1.4302
236 1.3905
237 1.3530
238 1.3191
239 1.2893
240 1.2658
241 1.2494
242 1.2403
243 1.2359
244 1.2380
245 1.2430
246 1.2498
247 1.2591
248 1.2684
249 1.2777
250 1.2833
251 1.2886
252 1.2904
253 1.2894
254 1.2848
255 1.2749
256 1.2614
257 1.2412
258 1.2178
259 1.1926
260 1.1649
261 1.1343
262 1.1018
263 1.0681
264 1.0371
265 1.0043
266 0.9724
267 0.9412
268 0.9094
269 0.8796
270 0.8506
271 0.8241
272 0.7998
273 0.7772
274 0.7558
275 0.7349
276 0.7159
277 0.7002
278 0.6853
279 0.6740
280 0.6645
281 0.6588
282 0.6560
283 0.6565
284 0.6614
285 0.6678
286 0.6770
287 0.6874
288 0.6999
289 0.7134
290 0.7268
291 0.7418
292 0.7577
293 0.7733
294 0.7895
295 0.8056
296 0.8213
297 0.8385
298 0.8552
299 0.8735
300 0.8903
301 0.9072
302 0.9241
303 0.9395
304 0.9524
305 0.9615
306 0.9684
307 0.9708
308 0.9691
309 0.9661
310 0.9575
311 0.9464
312 0.9316
313 0.9123
314 0.8909
315 0.8657
316 0.8367
317 0.8055
318 0.7705
319 0.7371
320 0.6957
321 0.6534
322 0.6086
323 0.5642
324 0.5215
325 0.4793
326 0.4405
327 0.4055
328 0.3731
329 0.3439
330 0.3187
331 0.2963
332 0.2770
333 0.2604
334 0.2452
335 0.2321
336 0.2211
337 0.2121
338 0.2036
339 0.1966
340 0.1910
341 0.1872
342 0.1832
343 0.1810
344 0.1784
345 0.1777
346 0.1775
347 0.1775
348 0.1781
349 0.1792
350 0.1813
351 0.1835
352 0.1866
353 0.1895
354 0.1937
355 0.1982
356 0.2030
357 0.2081
358 0.2133
359 0.2190
360 0.2254
361 0.2316
362 0.2381
363 0.2447
364 0.2515
365 0.2583
366 0.2656
367 0.2736
368 0.2813
369 0.2901
370 0.2989
371 0.3102
372 0.3217
373 0.3344
374 0.3478
375 0.3633
376 0.3786
377 0.3945
378 0.4124
379 0.4312
380 0.4487
381 0.4655
382 0.4816
383 0.4973
384 0.5114
385 0.5239
386 0.5355
387 0.5464
388 0.5556
389 0.5641
390 0.5727
391 0.5805
392 0.5891
393 0.5995
394 0.6101
395 0.6227
396 0.6377
397 0.6558
398 0.6750
399 0.6959
400 0.7186
401 0.7430
402 0.7664
403 0.7889
404 0.8092
405 0.8268
406 0.8398
407 0.8470
408 0.8495
409 0.8456
410 0.8352
411 0.8187
412 0.7975
413 0.7710
414 0.7410
415 0.7071
416 0.6708
417 0.6334
418 0.5945
419 0.5560
420 0.5170
421 0.4796
422 0.4437
423 0.4088
424 0.3757
425 0.3445
426 0.3158
427 0.2889
428 0.2641
429 0.2416
430 0.2208
431 0.2027
432 0.1863
433 0.1714
434 0.1581
435 0.1461
436 0.1362
437 0.1273
438 0.1196
439 0.1121
440 0.1063
441 0.1015
442 0.0971
443 0.0933
444 0.0900
445 0.0874
446 0.0852
447 0.0832
448 0.0816
449 0.0806
450 0.0797
451 0.0790
452 0.0779
453 0.0777
454 0.0776
455 0.0773
456 0.0771
457 0.0771
458 0.0774
459 0.0775
460 0.0777
461 0.0782
462 0.0786
463 0.0793
464 0.0798
465 0.0801
466 0.0806
467 0.0815
468 0.0824
469 0.0831
470 0.0838
471 0.0846
472 0.0855
473 0.0866
474 0.0877
475 0.0888
476 0.0902
477 0.0914
478 0.0923
479 0.0939
480 0.0952
481 0.0967
482 0.0982
483 0.0996
484 0.1010
485 0.1030
486 0.1047
487 0.1065
488 0.1088
489 0.1111
490 0.1129
491 0.1151
492 0.1174
493 0.1199
494 0.1227
495 0.1253
496 0.1281
497 0.1311
498 0.1343
499 0.1379
500 0.1405
501 0.1442
502 0.1481
503 0.1519
504 0.1559
505 0.1599
506 0.1646
507 0.1690
508 0.1739
509 0.1792
510 0.1841
511 0.1902
512 0.1955
513 0.2014
514 0.2079
515 0.2144
516 0.2213
517 0.2285
518 0.2359
519 0.2436
520 0.2515
521 0.2599
522 0.2687
523 0.2780
524 0.2874
525 0.2973
526 0.3077
527 0.3181
528 0.3292
529 0.3409
530 0.3527
531 0.3651
532 0.3777
533 0.3913
534 0.4049
535 0.4189
536 0.4335
537 0.4486
538 0.4642
539 0.4805
540 0.4975
541 0.5148
542 0.5329
543 0.5522
544 0.5719
545 0.5926
546 0.6142
547 0.6367
548 0.6602
549 0.6854
550 0.7108
551 0.7382
552 0.7664
553 0.7963
554 0.8280
555 0.8610
556 0.8957
557 0.9316
558 0.9690
559 1.0091
560 1.0504
561 1.0942
562 1.1384
563 1.1842
564 1.2316
565 1.2805
566 1.3298
567 1.3817
568 1.4334
569 1.4862
570 1.5401
571 1.5942
572 1.6490
573 1.7021
574 1.7564
575 1.8114
576 1.8637
577 1.9160
578 1.9678
579 2.0194
580 2.0704
581 2.1180
582 2.1655
583 2.2133
584 2.2614
585 2.3082
586 2.3523
587 2.4005
588 2.4474
589 2.4933
590 2.5383
591 2.5969
592 2.6381
593 2.6979
594 2.7499
595 2.8118
596 2.8661
597 2.9360
598 3.0029
599 3.0732
600 3.1443
601 3.2183
602 3.3104
603 3.3745
604 3.4258
605 3.4651
606 3.6158
607 3.6420
608 3.6885
609 3.6212
610 3.7155
611 3.8369
612 3.9383
613 3.7769
614 3.8318
615 3.6969
616 3.7339
617 3.8712
618 3.8023
619 3.9234
620 3.7605
621 3.7285
622 3.7506
623 3.8035
624 3.8738
625 3.8934
626 3.7629
627 3.8977
628 3.8797
629 3.7344
630 3.7479
631 3.7569
632 3.7516
633 3.7812
634 3.8093
635 3.8636
636 3.9495
637 3.7767
638 3.8398
639 3.8030
640 3.7106
641 3.7180
642 3.7121
643 3.7107
644 3.7274
645 3.6842
646 3.6303
647 3.5031
648 3.3421
649 3.2023
650 3.0359
651 2.8375
652 2.6556
653 2.4861
654 2.3138
655 2.1416
656 1.9812
657 1.8312
658 1.6893
659 1.5575
660 1.4342
661 1.3192
662 1.2136
663 1.1151
664 1.0235
665 0.9399
666 0.8633
667 0.7923
668 0.7268
669 0.6670
670 0.6123
671 0.5621
672 0.5160
673 0.4740
674 0.4363
675 0.4016
676 0.3701
677 0.3409
678 0.3142
679 0.2901
680 0.2681
681 0.2479
682 0.2301
683 0.2137
684 0.1990
685 0.1848
686 0.1721
687 0.1608
688 0.1506
689 0.1415
690 0.1331
691 0.1252
692 0.1181
693 0.1119
694 0.1067
695 0.1009
696 0.0959
697 0.0916
698 0.0879
699 0.0846
700 0.0810
701 0.0780
702 0.0747
703 0.0727
704 0.0706
705 0.0681
706 0.0661
707 0.0647
708 0.0634
709 0.0618
710 0.0606
711 0.0603
712 0.0589
713 0.0582
714 0.0568
715 0.0562
716 0.0554
717 0.0549
718 0.0548
719 0.0542
720 0.0536
721 0.0532
722 0.0528
723 0.0526
724 0.0528
725 0.0523
726 0.0524
727 0.0525
728 0.0525
729 0.0530
730 0.0532
731 0.0535
732 0.0539
733 0.0539
734 0.0545
735 0.0546
736 0.0542
737 0.0546
738 0.0542
739 0.0547
740 0.0538
741 0.0546
742 0.0551
743 0.0551
744 0.0544
745 0.0541
746 0.0540
747 0.0538
748 0.0536
749 0.0538
750 0.0534
751 0.0534
752 0.0530
753 0.0543
754 0.0536
755 0.0536
756 0.0538
757 0.0532
758 0.0537
759 0.0537
760 0.0536
761 0.0533
762 0.0540
763 0.0536
764 0.0523
765 0.0537
766 0.0529
767 0.0527
768 0.0531
769 0.0537
770 0.0526
771 0.0528
772 0.0518
773 0.0525
774 0.0523
775 0.0513
776 0.0523
777 0.0519
778 0.0510
779 0.0517
780 0.0517
781 0.0511
782 0.0510
783 0.0518
784 0.0517
785 0.0522
786 0.0512
787 0.0504
788 0.0496
789 0.0514
790 0.0503
791 0.0500
792 0.0501
793 0.0498
794 0.0504
795 0.0497
796 0.0497
797 0.0500
798 0.0500
799 0.0495
800 0.0499
##END=