##TITLE= Lwunknow
##JCAMP-DX= 4.24
##DATA TYPE= ULTRAVIOLET SPECTRUM
##SAMPLE DESCRIPTION= $$
$$         13:55:27    24/03/27
##SPECTROMETER/DATA SYSTEM= Perkin-Elmer Lambda Series / PECSS
##DATE= 24/03/27
##XUNITS= NANOMETERS
##YUNITS= ABSORBANCE
##MAXY= 4.0051
##MINY= 0.0503
##XFACTOR= 1.00
##YFACTOR= 1.0000
##FIRSTX= 200.0
##LASTX= 800.0
##NPOINTS= 601
##FIRSTY= 1.4338
##XYDATA= (XY..XY)
200 1.4338
201 1.5162
202 1.6118
203 1.7067
204 1.8038
205 1.9062
206 1.9930
207 2.0651
208 2.1905
209 2.2665
210 2.3263
211 2.3777
212 2.4018
213 2.4740
214 2.5103
215 2.4975
216 2.5176
217 2.4850
218 2.4473
219 2.4022
220 2.3097
221 2.2397
222 2.1529
223 2.0490
224 1.9418
225 1.8304
226 1.7329
227 1.6475
228 1.5693
229 1.5041
230 1.4436
231 1.3907
232 1.3433
233 1.3011
234 1.2632
235 1.2317
236 1.2022
237 1.1762
238 1.1533
239 1.1330
240 1.1178
241 1.1078
242 1.1041
243 1.1059
244 1.1096
245 1.1166
246 1.1243
247 1.1354
248 1.1439
249 1.1518
250 1.1594
251 1.1632
252 1.1667
253 1.1661
254 1.1610
255 1.1539
256 1.1403
257 1.1232
258 1.1030
259 1.0802
260 1.0557
261 1.0268
262 0.9977
263 0.9684
264 0.9377
265 0.9082
266 0.8778
267 0.8483
268 0.8197
269 0.7909
270 0.7643
271 0.7383
272 0.7153
273 0.6939
274 0.6726
275 0.6533
276 0.6352
277 0.6202
278 0.6052
279 0.5938
280 0.5854
281 0.5794
282 0.5759
283 0.5765
284 0.5789
285 0.5839
286 0.5905
287 0.5993
288 0.6093
289 0.6199
290 0.6315
291 0.6437
292 0.6565
293 0.6698
294 0.6830
295 0.6965
296 0.7098
297 0.7242
298 0.7384
299 0.7528
300 0.7677
301 0.7820
302 0.7961
303 0.8091
304 0.8186
305 0.8270
306 0.8319
307 0.8345
308 0.8325
309 0.8298
310 0.8223
311 0.8124
312 0.7994
313 0.7835
314 0.7653
315 0.7442
316 0.7200
317 0.6928
318 0.6645
319 0.6352
320 0.6009
321 0.5647
322 0.5274
323 0.4900
324 0.4532
325 0.4172
326 0.3852
327 0.3559
328 0.3284
329 0.3037
330 0.2823
331 0.2639
332 0.2479
333 0.2334
334 0.2205
335 0.2095
336 0.2006
337 0.1926
338 0.1853
339 0.1792
340 0.1745
341 0.1717
342 0.1684
343 0.1662
344 0.1646
345 0.1632
346 0.1633
347 0.1632
348 0.1637
349 0.1643
350 0.1658
351 0.1681
352 0.1703
353 0.1728
354 0.1766
355 0.1800
356 0.1844
357 0.1888
358 0.1930
359 0.1976
360 0.2028
361 0.2080
362 0.2134
363 0.2187
364 0.2244
365 0.2304
366 0.2363
367 0.2426
368 0.2491
369 0.2566
370 0.2643
371 0.2731
372 0.2829
373 0.2936
374 0.3055
375 0.3178
376 0.3308
377 0.3443
378 0.3586
379 0.3750
380 0.3898
381 0.4042
382 0.4175
383 0.4304
384 0.4425
385 0.4531
386 0.4628
387 0.4720
388 0.4794
389 0.4865
390 0.4931
391 0.5004
392 0.5076
393 0.5161
394 0.5253
395 0.5361
396 0.5483
397 0.5634
398 0.5796
399 0.5970
400 0.6163
401 0.6368
402 0.6567
403 0.6757
404 0.6931
405 0.7074
406 0.7179
407 0.7241
408 0.7254
409 0.7218
410 0.7130
411 0.6992
412 0.6807
413 0.6582
414 0.6326
415 0.6042
416 0.5733
417 0.5419
418 0.5091
419 0.4765
420 0.4442
421 0.4125
422 0.3820
423 0.3528
424 0.3252
425 0.2990
426 0.2746
427 0.2522
428 0.2313
429 0.2124
430 0.1952
431 0.1798
432 0.1662
433 0.1536
434 0.1425
435 0.1322
436 0.1243
437 0.1169
438 0.1101
439 0.1041
440 0.0992
441 0.0953
442 0.0913
443 0.0878
444 0.0858
445 0.0830
446 0.0812
447 0.0798
448 0.0783
449 0.0773
450 0.0766
451 0.0759
452 0.0753
453 0.0752
454 0.0750
455 0.0745
456 0.0746
457 0.0748
458 0.0745
459 0.0750
460 0.0750
461 0.0753
462 0.0755
463 0.0762
464 0.0766
465 0.0771
466 0.0774
467 0.0781
468 0.0788
469 0.0794
470 0.0800
471 0.0809
472 0.0815
473 0.0824
474 0.0833
475 0.0842
476 0.0853
477 0.0863
478 0.0873
479 0.0885
480 0.0895
481 0.0909
482 0.0919
483 0.0932
484 0.0948
485 0.0961
486 0.0976
487 0.0990
488 0.1007
489 0.1026
490 0.1043
491 0.1062
492 0.1083
493 0.1105
494 0.1128
495 0.1150
496 0.1175
497 0.1198
498 0.1224
499 0.1253
500 0.1277
501 0.1307
502 0.1337
503 0.1373
504 0.1407
505 0.1442
506 0.1480
507 0.1516
508 0.1558
509 0.1603
510 0.1645
511 0.1696
512 0.1741
513 0.1792
514 0.1847
515 0.1899
516 0.1958
517 0.2020
518 0.2082
519 0.2146
520 0.2213
521 0.2284
522 0.2360
523 0.2438
524 0.2520
525 0.2599
526 0.2687
527 0.2777
528 0.2870
529 0.2969
530 0.3066
531 0.3170
532 0.3278
533 0.3394
534 0.3509
535 0.3625
536 0.3747
537 0.3874
538 0.4010
539 0.4146
540 0.4287
541 0.4435
542 0.4590
543 0.4750
544 0.4914
545 0.5089
546 0.5272
547 0.5460
548 0.5662
549 0.5867
550 0.6089
551 0.6321
552 0.6559
553 0.6816
554 0.7081
555 0.7355
556 0.7650
557 0.7948
558 0.8271
559 0.8609
560 0.8959
561 0.9325
562 0.9703
563 1.0086
564 1.0484
565 1.0894
566 1.1319
567 1.1753
568 1.2187
569 1.2638
570 1.3078
571 1.3540
572 1.4002
573 1.4447
574 1.4911
575 1.5364
576 1.5804
577 1.6239
578 1.6696
579 1.7121
580 1.7528
581 1.7940
582 1.8350
583 1.8754
584 1.9153
585 1.9565
586 1.9939
587 2.0353
588 2.0770
589 2.1169
590 2.1563
591 2.2024
592 2.2484
593 2.2932
594 2.3427
595 2.3951
596 2.4517
597 2.5102
598 2.5731
599 2.6331
600 2.7066
601 2.7808
602 2.8600
603 2.9471
604 3.0182
605 3.1106
606 3.2143
607 3.3017
608 3.3726
609 3.4381
610 3.5581
611 3.6006
612 3.6345
613 3.6309
614 3.7548
615 3.7457
616 3.7544
617 3.6814
618 3.8603
619 3.7956
620 3.7738
621 3.7988
622 3.9384
623 3.9436
624 3.9460
625 3.9096
626 3.8983
627 3.8627
628 3.8330
629 3.7868
630 3.7569
631 3.9351
632 4.0051
633 3.8224
634 3.7512
635 3.7808
636 3.8747
637 3.7934
638 3.7941
639 3.7700
640 3.8046
641 3.6985
642 3.6489
643 3.6030
644 3.5155
645 3.4031
646 3.2908
647 3.1063
648 2.9524
649 2.7776
650 2.6014
651 2.4284
652 2.2687
653 2.1063
654 1.9563
655 1.8095
656 1.6739
657 1.5451
658 1.4252
659 1.3129
660 1.2088
661 1.1117
662 1.0222
663 0.9397
664 0.8628
665 0.7929
666 0.7283
667 0.6689
668 0.6142
669 0.5636
670 0.5182
671 0.4763
672 0.4380
673 0.4036
674 0.3715
675 0.3420
676 0.3162
677 0.2920
678 0.2699
679 0.2493
680 0.2315
681 0.2151
682 0.2004
683 0.1861
684 0.1742
685 0.1626
686 0.1519
687 0.1427
688 0.1340
689 0.1266
690 0.1199
691 0.1136
692 0.1077
693 0.1018
694 0.0974
695 0.0928
696 0.0886
697 0.0854
698 0.0823
699 0.0788
700 0.0765
701 0.0738
702 0.0711
703 0.0691
704 0.0673
705 0.0653
706 0.0635
707 0.0625
708 0.0618
709 0.0603
710 0.0593
711 0.0586
712 0.0575
713 0.0570
714 0.0559
715 0.0555
716 0.0555
717 0.0547
718 0.0542
719 0.0543
720 0.0531
721 0.0533
722 0.0530
723 0.0529
724 0.0527
725 0.0530
726 0.0530
727 0.0530
728 0.0530
729 0.0531
730 0.0537
731 0.0544
732 0.0544
733 0.0545
734 0.0548
735 0.0551
736 0.0549
737 0.0552
738 0.0547
739 0.0553
740 0.0553
741 0.0552
742 0.0560
743 0.0560
744 0.0552
745 0.0550
746 0.0545
747 0.0544
748 0.0544
749 0.0550
750 0.0544
751 0.0547
752 0.0539
753 0.0540
754 0.0537
755 0.0547
756 0.0539
757 0.0539
758 0.0538
759 0.0537
760 0.0540
761 0.0536
762 0.0537
763 0.0542
764 0.0533
765 0.0537
766 0.0536
767 0.0541
768 0.0540
769 0.0541
770 0.0538
771 0.0536
772 0.0523
773 0.0528
774 0.0531
775 0.0526
776 0.0534
777 0.0527
778 0.0528
779 0.0525
780 0.0521
781 0.0518
782 0.0517
783 0.0520
784 0.0525
785 0.0527
786 0.0518
787 0.0514
788 0.0512
789 0.0512
790 0.0514
791 0.0511
792 0.0509
793 0.0504
794 0.0507
795 0.0515
796 0.0503
797 0.0504
798 0.0504
799 0.0507
800 0.0509
##END=