##TITLE= SAcry
##JCAMP-DX= 4.24
##DATA TYPE= ULTRAVIOLET SPECTRUM
##SAMPLE DESCRIPTION= $$
$$         12:43:06    24/03/27
##SPECTROMETER/DATA SYSTEM= Perkin-Elmer Lambda Series / PECSS
##DATE= 24/03/27
##XUNITS= NANOMETERS
##YUNITS= TRANSMITTANCE
##MAXY= 0.9253
##MINY= -0.0123
##XFACTOR= 1.00
##YFACTOR= 1.0000
##FIRSTX= 200.0
##LASTX= 3200.0
##NPOINTS= 3001
##FIRSTY= 0.0638
##XYDATA= (XY..XY)
200 0.0638
201 0.0462
202 0.0396
203 0.0337
204 0.0285
205 0.0204
206 0.0174
207 0.0149
208 0.0128
209 0.0098
210 0.0086
211 0.0075
212 0.0065
213 0.0051
214 0.0045
215 0.0041
216 0.0035
217 0.0028
218 0.0026
219 0.0024
220 0.0022
221 0.0019
222 0.0017
223 0.0016
224 0.0014
225 0.0013
226 0.0012
227 0.0011
228 0.0011
229 0.0009
230 0.0008
231 0.0007
232 0.0006
233 0.0005
234 0.0005
235 0.0005
236 0.0005
237 0.0004
238 0.0004
239 0.0004
240 0.0003
241 0.0003
242 0.0003
243 0.0003
244 0.0004
245 0.0004
246 0.0005
247 0.0007
248 0.0009
249 0.0021
250 0.0031
251 0.0047
252 0.0071
253 0.0146
254 0.0199
255 0.0260
256 0.0323
257 0.0441
258 0.0488
259 0.0525
260 0.0550
261 0.0567
262 0.0561
263 0.0547
264 0.0525
265 0.0463
266 0.0427
267 0.0387
268 0.0347
269 0.0270
270 0.0234
271 0.0200
272 0.0169
273 0.0116
274 0.0095
275 0.0077
276 0.0062
277 0.0039
278 0.0030
279 0.0024
280 0.0018
281 0.0011
282 0.0009
283 0.0007
284 0.0005
285 0.0003
286 0.0003
287 0.0002
288 0.0002
289 0.0001
290 0.0001
291 0.0001
292 0.0000
293 0.0000
294 0.0000
295 0.0000
296 0.0000
297 0.0000
298 0.0000
299 0.0001
300 0.0001
301 0.0001
302 0.0001
303 0.0000
304 0.0000
305 0.0000
306 0.0001
307 0.0001
308 0.0001
309 0.0001
310 0.0001
311 0.0001
312 0.0001
313 0.0001
314 0.0001
315 0.0002
316 0.0003
317 0.0006
318 0.0008
319 0.0008
320 0.0008
321 0.0007
322 0.0007
323 0.0007
324 0.0007
325 0.0006
326 0.0006
327 0.0006
328 0.0005
329 0.0005
330 0.0004
331 0.0004
332 0.0004
333 0.0004
334 0.0003
335 0.0003
336 0.0003
337 0.0003
338 0.0003
339 0.0003
340 0.0002
341 0.0002
342 0.0002
343 0.0002
344 0.0002
345 0.0002
346 0.0002
347 0.0002
348 0.0002
349 0.0002
350 0.0002
351 0.0002
352 0.0003
353 0.0003
354 0.0004
355 0.0005
356 0.0006
357 0.0009
358 0.0012
359 0.0015
360 0.0020
361 0.0037
362 0.0050
363 0.0068
364 0.0091
365 0.0162
366 0.0215
367 0.0283
368 0.0369
369 0.0609
370 0.0769
371 0.0960
372 0.1184
373 0.1736
374 0.2064
375 0.2424
376 0.2813
377 0.3657
378 0.4097
379 0.4507
380 0.4923
381 0.5710
382 0.6072
383 0.6408
384 0.6719
385 0.7261
386 0.7494
387 0.7702
388 0.7886
389 0.8188
390 0.8311
391 0.8419
392 0.8513
393 0.8663
394 0.8725
395 0.8778
396 0.8823
397 0.8884
398 0.8909
399 0.8929
400 0.8946
401 0.8980
402 0.8989
403 0.8996
404 0.9006
405 0.9021
406 0.9025
407 0.9028
408 0.9032
409 0.9038
410 0.9043
411 0.9044
412 0.9048
413 0.9048
414 0.9047
415 0.9048
416 0.9049
417 0.9051
418 0.9056
419 0.9059
420 0.9062
421 0.9069
422 0.9071
423 0.9073
424 0.9076
425 0.9078
426 0.9079
427 0.9080
428 0.9081
429 0.9081
430 0.9082
431 0.9080
432 0.9079
433 0.9081
434 0.9081
435 0.9082
436 0.9085
437 0.9087
438 0.9089
439 0.9091
440 0.9090
441 0.9087
442 0.9083
443 0.9082
444 0.9086
445 0.9088
446 0.9090
447 0.9091
448 0.9089
449 0.9093
450 0.9095
451 0.9092
452 0.9093
453 0.9093
454 0.9094
455 0.9096
456 0.9098
457 0.9099
458 0.9101
459 0.9102
460 0.9102
461 0.9101
462 0.9100
463 0.9099
464 0.9101
465 0.9100
466 0.9101
467 0.9104
468 0.9106
469 0.9106
470 0.9105
471 0.9105
472 0.9107
473 0.9107
474 0.9106
475 0.9108
476 0.9110
477 0.9112
478 0.9112
479 0.9111
480 0.9109
481 0.9113
482 0.9115
483 0.9116
484 0.9118
485 0.9113
486 0.9113
487 0.9112
488 0.9110
489 0.9111
490 0.9111
491 0.9111
492 0.9113
493 0.9118
494 0.9118
495 0.9118
496 0.9117
497 0.9113
498 0.9114
499 0.9115
500 0.9115
501 0.9120
502 0.9120
503 0.9121
504 0.9122
505 0.9122
506 0.9125
507 0.9127
508 0.9126
509 0.9124
510 0.9123
511 0.9121
512 0.9123
513 0.9127
514 0.9128
515 0.9130
516 0.9131
517 0.9132
518 0.9134
519 0.9133
520 0.9131
521 0.9132
522 0.9132
523 0.9133
524 0.9134
525 0.9133
526 0.9134
527 0.9135
528 0.9134
529 0.9133
530 0.9132
531 0.9131
532 0.9133
533 0.9133
534 0.9135
535 0.9136
536 0.9136
537 0.9135
538 0.9135
539 0.9134
540 0.9132
541 0.9132
542 0.9131
543 0.9134
544 0.9139
545 0.9141
546 0.9140
547 0.9140
548 0.9139
549 0.9140
550 0.9140
551 0.9141
552 0.9146
553 0.9148
554 0.9146
555 0.9146
556 0.9144
557 0.9143
558 0.9143
559 0.9139
560 0.9141
561 0.9145
562 0.9146
563 0.9148
564 0.9147
565 0.9140
566 0.9144
567 0.9146
568 0.9147
569 0.9149
570 0.9147
571 0.9147
572 0.9147
573 0.9148
574 0.9150
575 0.9151
576 0.9152
577 0.9156
578 0.9155
579 0.9153
580 0.9151
581 0.9146
582 0.9146
583 0.9148
584 0.9150
585 0.9151
586 0.9151
587 0.9151
588 0.9150
589 0.9153
590 0.9156
591 0.9160
592 0.9162
593 0.9158
594 0.9155
595 0.9152
596 0.9149
597 0.9148
598 0.9147
599 0.9148
600 0.9149
601 0.9151
602 0.9152
603 0.9155
604 0.9156
605 0.9157
606 0.9154
607 0.9152
608 0.9152
609 0.9154
610 0.9154
611 0.9156
612 0.9156
613 0.9152
614 0.9154
615 0.9158
616 0.9160
617 0.9166
618 0.9168
619 0.9170
620 0.9171
621 0.9167
622 0.9166
623 0.9164
624 0.9161
625 0.9165
626 0.9164
627 0.9162
628 0.9161
629 0.9161
630 0.9159
631 0.9160
632 0.9160
633 0.9161
634 0.9163
635 0.9164
636 0.9165
637 0.9169
638 0.9170
639 0.9171
640 0.9173
641 0.9169
642 0.9167
643 0.9163
644 0.9160
645 0.9163
646 0.9164
647 0.9165
648 0.9167
649 0.9165
650 0.9165
651 0.9166
652 0.9167
653 0.9171
654 0.9171
655 0.9171
656 0.9171
657 0.9168
658 0.9165
659 0.9168
660 0.9167
661 0.9163
662 0.9164
663 0.9164
664 0.9163
665 0.9167
666 0.9166
667 0.9161
668 0.9160
669 0.9162
670 0.9166
671 0.9171
672 0.9174
673 0.9173
674 0.9170
675 0.9167
676 0.9167
677 0.9169
678 0.9172
679 0.9177
680 0.9175
681 0.9169
682 0.9169
683 0.9173
684 0.9176
685 0.9181
686 0.9177
687 0.9172
688 0.9168
689 0.9170
690 0.9168
691 0.9167
692 0.9168
693 0.9170
694 0.9171
695 0.9173
696 0.9175
697 0.9181
698 0.9178
699 0.9175
700 0.9173
701 0.9176
702 0.9179
703 0.9179
704 0.9176
705 0.9167
706 0.9167
707 0.9169
708 0.9172
709 0.9166
710 0.9166
711 0.9169
712 0.9172
713 0.9169
714 0.9163
715 0.9159
716 0.9159
717 0.9163
718 0.9168
719 0.9171
720 0.9167
721 0.9167
722 0.9164
723 0.9162
724 0.9161
725 0.9158
726 0.9157
727 0.9160
728 0.9159
729 0.9152
730 0.9150
731 0.9148
732 0.9151
733 0.9151
734 0.9148
735 0.9148
736 0.9151
737 0.9154
738 0.9157
739 0.9163
740 0.9164
741 0.9165
742 0.9169
743 0.9174
744 0.9179
745 0.9183
746 0.9182
747 0.9178
748 0.9175
749 0.9175
750 0.9177
751 0.9172
752 0.9169
753 0.9167
754 0.9167
755 0.9167
756 0.9168
757 0.9174
758 0.9177
759 0.9181
760 0.9180
761 0.9174
762 0.9169
763 0.9164
764 0.9161
765 0.9168
766 0.9170
767 0.9176
768 0.9182
769 0.9192
770 0.9193
771 0.9182
772 0.9181
773 0.9181
774 0.9181
775 0.9178
776 0.9173
777 0.9167
778 0.9166
779 0.9165
780 0.9167
781 0.9172
782 0.9179
783 0.9183
784 0.9186
785 0.9190
786 0.9184
787 0.9177
788 0.9171
789 0.9157
790 0.9160
791 0.9163
792 0.9162
793 0.9168
794 0.9166
795 0.9168
796 0.9173
797 0.9183
798 0.9191
799 0.9193
800 0.9186
801 0.9173
802 0.9170
803 0.9172
804 0.9170
805 0.9160
806 0.9163
807 0.9168
808 0.9166
809 0.9176
810 0.9178
811 0.9183
812 0.9186
813 0.9192
814 0.9196
815 0.9198
816 0.9200
817 0.9181
818 0.9171
819 0.9168
820 0.9166
821 0.9171
822 0.9171
823 0.9169
824 0.9174
825 0.9173
826 0.9168
827 0.9167
828 0.9174
829 0.9173
830 0.9173
831 0.9173
832 0.9169
833 0.9179
834 0.9182
835 0.9179
836 0.9178
837 0.9154
838 0.9152
839 0.9152
840 0.9155
841 0.9178
842 0.9187
843 0.9186
844 0.9176
845 0.9182
846 0.9181
847 0.9183
848 0.9189
849 0.9182
850 0.9180
851 0.9173
852 0.9166
853 0.9149
854 0.9172
855 0.9177
856 0.9180
857 0.9191
858 0.9189
859 0.9194
860 0.9205
861 0.9199
862 0.9197
863 0.9196
864 0.9198
865 0.9190
866 0.9190
867 0.9189
868 0.9185
869 0.9185
870 0.9180
871 0.9176
872 0.9175
873 0.9167
874 0.9162
875 0.9159
876 0.9153
877 0.9147
878 0.9145
879 0.9138
880 0.9132
881 0.9121
882 0.9116
883 0.9111
884 0.9109
885 0.9097
886 0.9092
887 0.9084
888 0.9076
889 0.9072
890 0.9067
891 0.9064
892 0.9067
893 0.9063
894 0.9064
895 0.9066
896 0.9063
897 0.9066
898 0.9069
899 0.9067
900 0.9069
901 0.9075
902 0.9080
903 0.9089
904 0.9097
905 0.9107
906 0.9114
907 0.9124
908 0.9129
909 0.9141
910 0.9143
911 0.9146
912 0.9155
913 0.9167
914 0.9171
915 0.9176
916 0.9179
917 0.9189
918 0.9193
919 0.9196
920 0.9203
921 0.9212
922 0.9213
923 0.9219
924 0.9223
925 0.9225
926 0.9228
927 0.9229
928 0.9229
929 0.9235
930 0.9233
931 0.9233
932 0.9237
933 0.9237
934 0.9241
935 0.9244
936 0.9244
937 0.9247
938 0.9245
939 0.9241
940 0.9243
941 0.9245
942 0.9243
943 0.9246
944 0.9248
945 0.9248
946 0.9252
947 0.9251
948 0.9250
949 0.9253
950 0.9251
951 0.9247
952 0.9247
953 0.9242
954 0.9242
955 0.9242
956 0.9239
957 0.9241
958 0.9240
959 0.9236
960 0.9235
961 0.9234
962 0.9232
963 0.9232
964 0.9231
965 0.9224
966 0.9222
967 0.9219
968 0.9216
969 0.9214
970 0.9211
971 0.9211
972 0.9212
973 0.9203
974 0.9201
975 0.9201
976 0.9198
977 0.9190
978 0.9184
979 0.9177
980 0.9175
981 0.9172
982 0.9169
983 0.9168
984 0.9164
985 0.9159
986 0.9157
987 0.9153
988 0.9150
989 0.9146
990 0.9143
991 0.9140
992 0.9138
993 0.9133
994 0.9129
995 0.9125
996 0.9120
997 0.9113
998 0.9112
999 0.9105
1000 0.9106
1001 0.9102
1002 0.9102
1003 0.9103
1004 0.9105
1005 0.9110
1006 0.9114
1007 0.9112
1008 0.9112
1009 0.9118
1010 0.9118
1011 0.9119
1012 0.9124
1013 0.9126
1014 0.9131
1015 0.9136
1016 0.9138
1017 0.9139
1018 0.9139
1019 0.9135
1020 0.9137
1021 0.9137
1022 0.9136
1023 0.9137
1024 0.9139
1025 0.9135
1026 0.9136
1027 0.9136
1028 0.9137
1029 0.9143
1030 0.9143
1031 0.9147
1032 0.9152
1033 0.9152
1034 0.9154
1035 0.9154
1036 0.9155
1037 0.9159
1038 0.9162
1039 0.9164
1040 0.9168
1041 0.9179
1042 0.9182
1043 0.9185
1044 0.9189
1045 0.9191
1046 0.9195
1047 0.9197
1048 0.9197
1049 0.9199
1050 0.9198
1051 0.9198
1052 0.9201
1053 0.9201
1054 0.9203
1055 0.9205
1056 0.9204
1057 0.9211
1058 0.9211
1059 0.9210
1060 0.9211
1061 0.9214
1062 0.9214
1063 0.9217
1064 0.9219
1065 0.9220
1066 0.9224
1067 0.9223
1068 0.9225
1069 0.9231
1070 0.9228
1071 0.9230
1072 0.9234
1073 0.9235
1074 0.9235
1075 0.9233
1076 0.9230
1077 0.9232
1078 0.9231
1079 0.9228
1080 0.9229
1081 0.9230
1082 0.9230
1083 0.9231
1084 0.9227
1085 0.9223
1086 0.9225
1087 0.9224
1088 0.9222
1089 0.9218
1090 0.9215
1091 0.9215
1092 0.9217
1093 0.9209
1094 0.9208
1095 0.9205
1096 0.9201
1097 0.9199
1098 0.9191
1099 0.9184
1100 0.9179
1101 0.9161
1102 0.9151
1103 0.9144
1104 0.9135
1105 0.9117
1106 0.9109
1107 0.9096
1108 0.9084
1109 0.9064
1110 0.9052
1111 0.9041
1112 0.9029
1113 0.9002
1114 0.8990
1115 0.8974
1116 0.8952
1117 0.8908
1118 0.8882
1119 0.8856
1120 0.8832
1121 0.8777
1122 0.8749
1123 0.8723
1124 0.8696
1125 0.8645
1126 0.8619
1127 0.8592
1128 0.8566
1129 0.8510
1130 0.8480
1131 0.8453
1132 0.8426
1133 0.8369
1134 0.8346
1135 0.8323
1136 0.8299
1137 0.8258
1138 0.8235
1139 0.8213
1140 0.8195
1141 0.8153
1142 0.8130
1143 0.8106
1144 0.8079
1145 0.8027
1146 0.8002
1147 0.7977
1148 0.7952
1149 0.7899
1150 0.7866
1151 0.7833
1152 0.7796
1153 0.7712
1154 0.7672
1155 0.7630
1156 0.7587
1157 0.7514
1158 0.7479
1159 0.7445
1160 0.7416
1161 0.7356
1162 0.7329
1163 0.7304
1164 0.7278
1165 0.7230
1166 0.7209
1167 0.7191
1168 0.7177
1169 0.7158
1170 0.7151
1171 0.7149
1172 0.7149
1173 0.7156
1174 0.7168
1175 0.7184
1176 0.7206
1177 0.7275
1178 0.7318
1179 0.7369
1180 0.7427
1181 0.7545
1182 0.7605
1183 0.7663
1184 0.7716
1185 0.7814
1186 0.7860
1187 0.7901
1188 0.7941
1189 0.8020
1190 0.8052
1191 0.8084
1192 0.8118
1193 0.8177
1194 0.8207
1195 0.8237
1196 0.8266
1197 0.8327
1198 0.8358
1199 0.8387
1200 0.8419
1201 0.8482
1202 0.8510
1203 0.8542
1204 0.8572
1205 0.8627
1206 0.8657
1207 0.8685
1208 0.8713
1209 0.8770
1210 0.8793
1211 0.8815
1212 0.8837
1213 0.8873
1214 0.8888
1215 0.8901
1216 0.8913
1217 0.8933
1218 0.8941
1219 0.8948
1220 0.8956
1221 0.8973
1222 0.8979
1223 0.8986
1224 0.8993
1225 0.9002
1226 0.9009
1227 0.9014
1228 0.9017
1229 0.9030
1230 0.9034
1231 0.9039
1232 0.9047
1233 0.9058
1234 0.9065
1235 0.9072
1236 0.9073
1237 0.9079
1238 0.9083
1239 0.9085
1240 0.9088
1241 0.9094
1242 0.9096
1243 0.9100
1244 0.9105
1245 0.9109
1246 0.9113
1247 0.9115
1248 0.9117
1249 0.9125
1250 0.9125
1251 0.9129
1252 0.9136
1253 0.9142
1254 0.9145
1255 0.9148
1256 0.9146
1257 0.9147
1258 0.9147
1259 0.9147
1260 0.9149
1261 0.9147
1262 0.9144
1263 0.9146
1264 0.9148
1265 0.9150
1266 0.9150
1267 0.9149
1268 0.9148
1269 0.9150
1270 0.9148
1271 0.9148
1272 0.9150
1273 0.9150
1274 0.9151
1275 0.9155
1276 0.9154
1277 0.9156
1278 0.9155
1279 0.9153
1280 0.9152
1281 0.9148
1282 0.9147
1283 0.9148
1284 0.9147
1285 0.9141
1286 0.9141
1287 0.9140
1288 0.9138
1289 0.9140
1290 0.9139
1291 0.9138
1292 0.9139
1293 0.9134
1294 0.9133
1295 0.9132
1296 0.9129
1297 0.9127
1298 0.9126
1299 0.9124
1300 0.9124
1301 0.9119
1302 0.9115
1303 0.9112
1304 0.9110
1305 0.9105
1306 0.9105
1307 0.9103
1308 0.9099
1309 0.9095
1310 0.9088
1311 0.9082
1312 0.9076
1313 0.9061
1314 0.9055
1315 0.9050
1316 0.9042
1317 0.9026
1318 0.9016
1319 0.9004
1320 0.8994
1321 0.8966
1322 0.8949
1323 0.8931
1324 0.8909
1325 0.8856
1326 0.8825
1327 0.8789
1328 0.8749
1329 0.8657
1330 0.8600
1331 0.8538
1332 0.8472
1333 0.8320
1334 0.8238
1335 0.8152
1336 0.8060
1337 0.7880
1338 0.7793
1339 0.7708
1340 0.7632
1341 0.7503
1342 0.7452
1343 0.7413
1344 0.7380
1345 0.7331
1346 0.7311
1347 0.7290
1348 0.7271
1349 0.7232
1350 0.7210
1351 0.7189
1352 0.7171
1353 0.7145
1354 0.7138
1355 0.7132
1356 0.7124
1357 0.7095
1358 0.7070
1359 0.7038
1360 0.7002
1361 0.6917
1362 0.6873
1363 0.6834
1364 0.6798
1365 0.6741
1366 0.6723
1367 0.6709
1368 0.6701
1369 0.6703
1370 0.6708
1371 0.6719
1372 0.6733
1373 0.6764
1374 0.6780
1375 0.6796
1376 0.6812
1377 0.6845
1378 0.6860
1379 0.6871
1380 0.6881
1381 0.6885
1382 0.6882
1383 0.6878
1384 0.6873
1385 0.6860
1386 0.6861
1387 0.6863
1388 0.6873
1389 0.6917
1390 0.6945
1391 0.6981
1392 0.7020
1393 0.7100
1394 0.7143
1395 0.7185
1396 0.7225
1397 0.7300
1398 0.7333
1399 0.7365
1400 0.7394
1401 0.7432
1402 0.7447
1403 0.7460
1404 0.7468
1405 0.7473
1406 0.7475
1407 0.7475
1408 0.7475
1409 0.7471
1410 0.7464
1411 0.7457
1412 0.7451
1413 0.7431
1414 0.7421
1415 0.7411
1416 0.7400
1417 0.7383
1418 0.7375
1419 0.7368
1420 0.7364
1421 0.7360
1422 0.7361
1423 0.7364
1424 0.7369
1425 0.7385
1426 0.7398
1427 0.7411
1428 0.7426
1429 0.7462
1430 0.7477
1431 0.7494
1432 0.7512
1433 0.7540
1434 0.7553
1435 0.7564
1436 0.7572
1437 0.7594
1438 0.7605
1439 0.7618
1440 0.7636
1441 0.7685
1442 0.7719
1443 0.7759
1444 0.7800
1445 0.7897
1446 0.7950
1447 0.8000
1448 0.8048
1449 0.8136
1450 0.8173
1451 0.8210
1452 0.8243
1453 0.8296
1454 0.8317
1455 0.8333
1456 0.8344
1457 0.8367
1458 0.8375
1459 0.8384
1460 0.8393
1461 0.8407
1462 0.8417
1463 0.8425
1464 0.8432
1465 0.8447
1466 0.8455
1467 0.8462
1468 0.8471
1469 0.8489
1470 0.8494
1471 0.8499
1472 0.8506
1473 0.8518
1474 0.8525
1475 0.8530
1476 0.8533
1477 0.8549
1478 0.8556
1479 0.8562
1480 0.8570
1481 0.8587
1482 0.8598
1483 0.8611
1484 0.8622
1485 0.8645
1486 0.8657
1487 0.8666
1488 0.8677
1489 0.8698
1490 0.8705
1491 0.8712
1492 0.8718
1493 0.8728
1494 0.8735
1495 0.8736
1496 0.8736
1497 0.8744
1498 0.8747
1499 0.8751
1500 0.8757
1501 0.8767
1502 0.8774
1503 0.8781
1504 0.8787
1505 0.8802
1506 0.8810
1507 0.8816
1508 0.8821
1509 0.8832
1510 0.8835
1511 0.8840
1512 0.8844
1513 0.8848
1514 0.8851
1515 0.8852
1516 0.8853
1517 0.8858
1518 0.8857
1519 0.8859
1520 0.8863
1521 0.8868
1522 0.8872
1523 0.8876
1524 0.8874
1525 0.8873
1526 0.8874
1527 0.8874
1528 0.8875
1529 0.8876
1530 0.8876
1531 0.8877
1532 0.8878
1533 0.8872
1534 0.8870
1535 0.8865
1536 0.8859
1537 0.8857
1538 0.8854
1539 0.8853
1540 0.8854
1541 0.8846
1542 0.8842
1543 0.8838
1544 0.8836
1545 0.8829
1546 0.8825
1547 0.8821
1548 0.8819
1549 0.8810
1550 0.8805
1551 0.8802
1552 0.8797
1553 0.8783
1554 0.8778
1555 0.8771
1556 0.8766
1557 0.8754
1558 0.8745
1559 0.8737
1560 0.8731
1561 0.8716
1562 0.8710
1563 0.8703
1564 0.8693
1565 0.8682
1566 0.8676
1567 0.8670
1568 0.8665
1569 0.8654
1570 0.8649
1571 0.8642
1572 0.8636
1573 0.8623
1574 0.8617
1575 0.8610
1576 0.8603
1577 0.8595
1578 0.8586
1579 0.8579
1580 0.8572
1581 0.8551
1582 0.8543
1583 0.8536
1584 0.8528
1585 0.8512
1586 0.8502
1587 0.8491
1588 0.8480
1589 0.8458
1590 0.8447
1591 0.8436
1592 0.8424
1593 0.8399
1594 0.8390
1595 0.8380
1596 0.8368
1597 0.8342
1598 0.8327
1599 0.8312
1600 0.8296
1601 0.8261
1602 0.8245
1603 0.8228
1604 0.8209
1605 0.8175
1606 0.8155
1607 0.8135
1608 0.8114
1609 0.8069
1610 0.8046
1611 0.8025
1612 0.8002
1613 0.7947
1614 0.7922
1615 0.7896
1616 0.7871
1617 0.7819
1618 0.7792
1619 0.7769
1620 0.7747
1621 0.7696
1622 0.7676
1623 0.7656
1624 0.7634
1625 0.7591
1626 0.7566
1627 0.7539
1628 0.7509
1629 0.7450
1630 0.7421
1631 0.7393
1632 0.7365
1633 0.7307
1634 0.7278
1635 0.7246
1636 0.7213
1637 0.7141
1638 0.7096
1639 0.7045
1640 0.6990
1641 0.6853
1642 0.6773
1643 0.6683
1644 0.6583
1645 0.6350
1646 0.6218
1647 0.6073
1648 0.5917
1649 0.5564
1650 0.5372
1651 0.5174
1652 0.4967
1653 0.4540
1654 0.4326
1655 0.4116
1656 0.3912
1657 0.3528
1658 0.3353
1659 0.3193
1660 0.3048
1661 0.2802
1662 0.2700
1663 0.2609
1664 0.2526
1665 0.2377
1666 0.2305
1667 0.2233
1668 0.2158
1669 0.1996
1670 0.1911
1671 0.1823
1672 0.1737
1673 0.1589
1674 0.1530
1675 0.1483
1676 0.1454
1677 0.1437
1678 0.1453
1679 0.1485
1680 0.1531
1681 0.1660
1682 0.1739
1683 0.1821
1684 0.1908
1685 0.2073
1686 0.2145
1687 0.2208
1688 0.2258
1689 0.2319
1690 0.2334
1691 0.2338
1692 0.2332
1693 0.2299
1694 0.2276
1695 0.2250
1696 0.2227
1697 0.2183
1698 0.2166
1699 0.2155
1700 0.2146
1701 0.2150
1702 0.2162
1703 0.2176
1704 0.2196
1705 0.2245
1706 0.2271
1707 0.2297
1708 0.2318
1709 0.2343
1710 0.2348
1711 0.2347
1712 0.2341
1713 0.2322
1714 0.2311
1715 0.2304
1716 0.2301
1717 0.2308
1718 0.2321
1719 0.2340
1720 0.2362
1721 0.2418
1722 0.2451
1723 0.2483
1724 0.2516
1725 0.2584
1726 0.2618
1727 0.2655
1728 0.2693
1729 0.2768
1730 0.2810
1731 0.2851
1732 0.2893
1733 0.2984
1734 0.3029
1735 0.3078
1736 0.3131
1737 0.3239
1738 0.3296
1739 0.3354
1740 0.3410
1741 0.3521
1742 0.3574
1743 0.3624
1744 0.3674
1745 0.3773
1746 0.3824
1747 0.3878
1748 0.3933
1749 0.4048
1750 0.4109
1751 0.4169
1752 0.4229
1753 0.4350
1754 0.4406
1755 0.4461
1756 0.4517
1757 0.4612
1758 0.4657
1759 0.4699
1760 0.4736
1761 0.4803
1762 0.4830
1763 0.4853
1764 0.4874
1765 0.4902
1766 0.4909
1767 0.4912
1768 0.4909
1769 0.4889
1770 0.4873
1771 0.4852
1772 0.4828
1773 0.4779
1774 0.4755
1775 0.4733
1776 0.4714
1777 0.4681
1778 0.4675
1779 0.4674
1780 0.4678
1781 0.4710
1782 0.4732
1783 0.4756
1784 0.4788
1785 0.4861
1786 0.4903
1787 0.4948
1788 0.4993
1789 0.5087
1790 0.5135
1791 0.5180
1792 0.5228
1793 0.5327
1794 0.5372
1795 0.5419
1796 0.5467
1797 0.5561
1798 0.5611
1799 0.5660
1800 0.5708
1801 0.5800
1802 0.5842
1803 0.5877
1804 0.5912
1805 0.5976
1806 0.6005
1807 0.6034
1808 0.6059
1809 0.6107
1810 0.6132
1811 0.6151
1812 0.6170
1813 0.6209
1814 0.6224
1815 0.6240
1816 0.6254
1817 0.6273
1818 0.6281
1819 0.6285
1820 0.6286
1821 0.6292
1822 0.6292
1823 0.6291
1824 0.6292
1825 0.6291
1826 0.6290
1827 0.6290
1828 0.6289
1829 0.6286
1830 0.6288
1831 0.6285
1832 0.6282
1833 0.6277
1834 0.6271
1835 0.6265
1836 0.6260
1837 0.6239
1838 0.6230
1839 0.6216
1840 0.6200
1841 0.6170
1842 0.6151
1843 0.6133
1844 0.6116
1845 0.6078
1846 0.6058
1847 0.6038
1848 0.6016
1849 0.5975
1850 0.5955
1851 0.5937
1852 0.5921
1853 0.5897
1854 0.5888
1855 0.5884
1856 0.5885
1857 0.5898
1858 0.5913
1859 0.5929
1860 0.5945
1861 0.5986
1862 0.6007
1863 0.6026
1864 0.6050
1865 0.6086
1866 0.6101
1867 0.6115
1868 0.6124
1869 0.6133
1870 0.6130
1871 0.6122
1872 0.6113
1873 0.6085
1874 0.6068
1875 0.6054
1876 0.6037
1877 0.6000
1878 0.5979
1879 0.5957
1880 0.5931
1881 0.5873
1882 0.5835
1883 0.5789
1884 0.5741
1885 0.5626
1886 0.5561
1887 0.5494
1888 0.5419
1889 0.5255
1890 0.5172
1891 0.5084
1892 0.5000
1893 0.4835
1894 0.4753
1895 0.4676
1896 0.4601
1897 0.4454
1898 0.4388
1899 0.4325
1900 0.4268
1901 0.4180
1902 0.4146
1903 0.4121
1904 0.4108
1905 0.4116
1906 0.4139
1907 0.4174
1908 0.4219
1909 0.4340
1910 0.4416
1911 0.4496
1912 0.4583
1913 0.4770
1914 0.4861
1915 0.4953
1916 0.5044
1917 0.5203
1918 0.5280
1919 0.5352
1920 0.5417
1921 0.5532
1922 0.5576
1923 0.5613
1924 0.5645
1925 0.5682
1926 0.5692
1927 0.5693
1928 0.5685
1929 0.5656
1930 0.5634
1931 0.5608
1932 0.5577
1933 0.5501
1934 0.5457
1935 0.5413
1936 0.5367
1937 0.5267
1938 0.5221
1939 0.5174
1940 0.5129
1941 0.5053
1942 0.5019
1943 0.4992
1944 0.4973
1945 0.4950
1946 0.4953
1947 0.4963
1948 0.4979
1949 0.5043
1950 0.5086
1951 0.5134
1952 0.5193
1953 0.5327
1954 0.5399
1955 0.5475
1956 0.5550
1957 0.5697
1958 0.5769
1959 0.5836
1960 0.5899
1961 0.6016
1962 0.6066
1963 0.6111
1964 0.6153
1965 0.6221
1966 0.6252
1967 0.6281
1968 0.6304
1969 0.6344
1970 0.6362
1971 0.6373
1972 0.6385
1973 0.6404
1974 0.6410
1975 0.6419
1976 0.6425
1977 0.6429
1978 0.6434
1979 0.6435
1980 0.6436
1981 0.6438
1982 0.6434
1983 0.6433
1984 0.6432
1985 0.6426
1986 0.6423
1987 0.6419
1988 0.6414
1989 0.6407
1990 0.6403
1991 0.6396
1992 0.6391
1993 0.6382
1994 0.6376
1995 0.6372
1996 0.6368
1997 0.6359
1998 0.6356
1999 0.6350
2000 0.6345
2001 0.6340
2002 0.6336
2003 0.6334
2004 0.6335
2005 0.6328
2006 0.6328
2007 0.6327
2008 0.6324
2009 0.6322
2010 0.6316
2011 0.6308
2012 0.6309
2013 0.6301
2014 0.6297
2015 0.6293
2016 0.6286
2017 0.6277
2018 0.6271
2019 0.6264
2020 0.6257
2021 0.6243
2022 0.6236
2023 0.6231
2024 0.6226
2025 0.6209
2026 0.6202
2027 0.6194
2028 0.6183
2029 0.6168
2030 0.6162
2031 0.6151
2032 0.6142
2033 0.6124
2034 0.6113
2035 0.6106
2036 0.6094
2037 0.6069
2038 0.6059
2039 0.6045
2040 0.6033
2041 0.6004
2042 0.5987
2043 0.5973
2044 0.5960
2045 0.5923
2046 0.5909
2047 0.5891
2048 0.5874
2049 0.5848
2050 0.5835
2051 0.5822
2052 0.5810
2053 0.5787
2054 0.5779
2055 0.5772
2056 0.5763
2057 0.5748
2058 0.5740
2059 0.5730
2060 0.5719
2061 0.5700
2062 0.5685
2063 0.5669
2064 0.5654
2065 0.5616
2066 0.5597
2067 0.5577
2068 0.5553
2069 0.5508
2070 0.5482
2071 0.5455
2072 0.5430
2073 0.5368
2074 0.5336
2075 0.5303
2076 0.5266
2077 0.5189
2078 0.5147
2079 0.5099
2080 0.5050
2081 0.4945
2082 0.4889
2083 0.4831
2084 0.4769
2085 0.4632
2086 0.4562
2087 0.4487
2088 0.4408
2089 0.4248
2090 0.4164
2091 0.4078
2092 0.3991
2093 0.3809
2094 0.3719
2095 0.3631
2096 0.3542
2097 0.3367
2098 0.3282
2099 0.3196
2100 0.3113
2101 0.2956
2102 0.2879
2103 0.2807
2104 0.2738
2105 0.2613
2106 0.2560
2107 0.2513
2108 0.2471
2109 0.2413
2110 0.2393
2111 0.2379
2112 0.2373
2113 0.2377
2114 0.2385
2115 0.2395
2116 0.2404
2117 0.2418
2118 0.2418
2119 0.2408
2120 0.2389
2121 0.2320
2122 0.2270
2123 0.2212
2124 0.2146
2125 0.1994
2126 0.1915
2127 0.1836
2128 0.1759
2129 0.1629
2130 0.1577
2131 0.1538
2132 0.1515
2133 0.1508
2134 0.1524
2135 0.1552
2136 0.1590
2137 0.1693
2138 0.1753
2139 0.1815
2140 0.1879
2141 0.2003
2142 0.2060
2143 0.2115
2144 0.2165
2145 0.2249
2146 0.2286
2147 0.2318
2148 0.2348
2149 0.2402
2150 0.2425
2151 0.2447
2152 0.2467
2153 0.2496
2154 0.2508
2155 0.2520
2156 0.2529
2157 0.2544
2158 0.2549
2159 0.2550
2160 0.2551
2161 0.2547
2162 0.2542
2163 0.2536
2164 0.2528
2165 0.2504
2166 0.2492
2167 0.2478
2168 0.2459
2169 0.2419
2170 0.2394
2171 0.2368
2172 0.2341
2173 0.2279
2174 0.2247
2175 0.2213
2176 0.2175
2177 0.2096
2178 0.2055
2179 0.2014
2180 0.1974
2181 0.1896
2182 0.1858
2183 0.1822
2184 0.1787
2185 0.1718
2186 0.1686
2187 0.1652
2188 0.1619
2189 0.1551
2190 0.1516
2191 0.1480
2192 0.1444
2193 0.1363
2194 0.1321
2195 0.1279
2196 0.1235
2197 0.1143
2198 0.1094
2199 0.1044
2200 0.0993
2201 0.0889
2202 0.0838
2203 0.0788
2204 0.0737
2205 0.0636
2206 0.0588
2207 0.0540
2208 0.0492
2209 0.0405
2210 0.0363
2211 0.0324
2212 0.0288
2213 0.0221
2214 0.0193
2215 0.0166
2216 0.0142
2217 0.0102
2218 0.0085
2219 0.0070
2220 0.0058
2221 0.0038
2222 0.0029
2223 0.0022
2224 0.0016
2225 0.0007
2226 0.0006
2227 0.0006
2228 0.0005
2229 0.0005
2230 0.0005
2231 0.0004
2232 0.0003
2233 0.0001
2234 0.0000
2235 0.0000
2236 -0.0001
2237 -0.0003
2238 -0.0004
2239 -0.0006
2240 -0.0006
2241 -0.0005
2242 -0.0005
2243 -0.0005
2244 -0.0005
2245 -0.0006
2246 -0.0006
2247 -0.0007
2248 -0.0008
2249 -0.0009
2250 -0.0010
2251 -0.0010
2252 -0.0010
2253 -0.0012
2254 -0.0011
2255 -0.0011
2256 -0.0012
2257 -0.0013
2258 -0.0014
2259 -0.0015
2260 -0.0015
2261 -0.0015
2262 -0.0015
2263 -0.0016
2264 -0.0016
2265 -0.0016
2266 -0.0014
2267 -0.0013
2268 -0.0012
2269 -0.0010
2270 -0.0010
2271 -0.0010
2272 -0.0010
2273 -0.0013
2274 -0.0012
2275 -0.0013
2276 -0.0013
2277 -0.0011
2278 -0.0010
2279 -0.0009
2280 -0.0009
2281 -0.0011
2282 -0.0012
2283 -0.0012
2284 -0.0013
2285 -0.0016
2286 -0.0017
2287 -0.0017
2288 -0.0018
2289 -0.0018
2290 -0.0018
2291 -0.0019
2292 -0.0018
2293 -0.0019
2294 -0.0018
2295 -0.0017
2296 -0.0017
2297 -0.0015
2298 -0.0014
2299 -0.0013
2300 -0.0010
2301 -0.0006
2302 -0.0003
2303 0.0000
2304 0.0003
2305 0.0008
2306 0.0010
2307 0.0011
2308 0.0012
2309 0.0018
2310 0.0019
2311 0.0021
2312 0.0024
2313 0.0027
2314 0.0030
2315 0.0032
2316 0.0033
2317 0.0036
2318 0.0037
2319 0.0037
2320 0.0038
2321 0.0039
2322 0.0038
2323 0.0037
2324 0.0035
2325 0.0032
2326 0.0031
2327 0.0027
2328 0.0024
2329 0.0022
2330 0.0020
2331 0.0019
2332 0.0018
2333 0.0016
2334 0.0017
2335 0.0016
2336 0.0015
2337 0.0014
2338 0.0013
2339 0.0011
2340 0.0011
2341 0.0010
2342 0.0009
2343 0.0009
2344 0.0008
2345 0.0007
2346 0.0007
2347 0.0007
2348 0.0006
2349 0.0005
2350 0.0003
2351 0.0003
2352 0.0003
2353 0.0002
2354 0.0003
2355 0.0003
2356 0.0002
2357 0.0002
2358 0.0000
2359 0.0000
2360 -0.0000
2361 -0.0003
2362 -0.0003
2363 -0.0003
2364 -0.0004
2365 -0.0004
2366 -0.0003
2367 -0.0003
2368 -0.0004
2369 -0.0005
2370 -0.0007
2371 -0.0007
2372 -0.0006
2373 -0.0006
2374 -0.0005
2375 -0.0006
2376 -0.0005
2377 -0.0005
2378 -0.0006
2379 -0.0007
2380 -0.0007
2381 -0.0009
2382 -0.0009
2383 -0.0010
2384 -0.0010
2385 -0.0009
2386 -0.0008
2387 -0.0008
2388 -0.0008
2389 -0.0008
2390 -0.0009
2391 -0.0009
2392 -0.0010
2393 -0.0013
2394 -0.0013
2395 -0.0014
2396 -0.0015
2397 -0.0014
2398 -0.0015
2399 -0.0015
2400 -0.0014
2401 -0.0014
2402 -0.0015
2403 -0.0015
2404 -0.0017
2405 -0.0017
2406 -0.0017
2407 -0.0019
2408 -0.0021
2409 -0.0021
2410 -0.0022
2411 -0.0021
2412 -0.0021
2413 -0.0024
2414 -0.0024
2415 -0.0025
2416 -0.0027
2417 -0.0028
2418 -0.0030
2419 -0.0031
2420 -0.0031
2421 -0.0032
2422 -0.0033
2423 -0.0033
2424 -0.0033
2425 -0.0033
2426 -0.0033
2427 -0.0033
2428 -0.0033
2429 -0.0033
2430 -0.0032
2431 -0.0032
2432 -0.0032
2433 -0.0032
2434 -0.0033
2435 -0.0033
2436 -0.0033
2437 -0.0034
2438 -0.0034
2439 -0.0035
2440 -0.0035
2441 -0.0036
2442 -0.0037
2443 -0.0037
2444 -0.0037
2445 -0.0038
2446 -0.0038
2447 -0.0037
2448 -0.0036
2449 -0.0031
2450 -0.0027
2451 -0.0022
2452 -0.0016
2453 -0.0005
2454 0.0002
2455 0.0009
2456 0.0014
2457 0.0026
2458 0.0029
2459 0.0034
2460 0.0039
2461 0.0045
2462 0.0049
2463 0.0051
2464 0.0050
2465 0.0052
2466 0.0053
2467 0.0053
2468 0.0052
2469 0.0050
2470 0.0048
2471 0.0048
2472 0.0046
2473 0.0044
2474 0.0045
2475 0.0042
2476 0.0039
2477 0.0039
2478 0.0037
2479 0.0037
2480 0.0039
2481 0.0038
2482 0.0039
2483 0.0041
2484 0.0041
2485 0.0039
2486 0.0039
2487 0.0038
2488 0.0038
2489 0.0039
2490 0.0039
2491 0.0042
2492 0.0044
2493 0.0046
2494 0.0049
2495 0.0050
2496 0.0051
2497 0.0055
2498 0.0056
2499 0.0058
2500 0.0062
2501 0.0067
2502 0.0071
2503 0.0073
2504 0.0076
2505 0.0085
2506 0.0090
2507 0.0094
2508 0.0098
2509 0.0105
2510 0.0111
2511 0.0120
2512 0.0127
2513 0.0140
2514 0.0149
2515 0.0155
2516 0.0158
2517 0.0164
2518 0.0164
2519 0.0165
2520 0.0166
2521 0.0165
2522 0.0166
2523 0.0165
2524 0.0162
2525 0.0155
2526 0.0150
2527 0.0144
2528 0.0140
2529 0.0130
2530 0.0125
2531 0.0121
2532 0.0117
2533 0.0109
2534 0.0109
2535 0.0108
2536 0.0109
2537 0.0112
2538 0.0112
2539 0.0115
2540 0.0121
2541 0.0133
2542 0.0144
2543 0.0152
2544 0.0161
2545 0.0185
2546 0.0198
2547 0.0211
2548 0.0226
2549 0.0252
2550 0.0265
2551 0.0281
2552 0.0295
2553 0.0321
2554 0.0335
2555 0.0348
2556 0.0360
2557 0.0388
2558 0.0397
2559 0.0406
2560 0.0416
2561 0.0432
2562 0.0442
2563 0.0450
2564 0.0456
2565 0.0477
2566 0.0488
2567 0.0496
2568 0.0503
2569 0.0515
2570 0.0520
2571 0.0527
2572 0.0531
2573 0.0545
2574 0.0553
2575 0.0559
2576 0.0565
2577 0.0582
2578 0.0588
2579 0.0597
2580 0.0608
2581 0.0627
2582 0.0639
2583 0.0649
2584 0.0658
2585 0.0681
2586 0.0690
2587 0.0700
2588 0.0710
2589 0.0723
2590 0.0729
2591 0.0736
2592 0.0741
2593 0.0752
2594 0.0758
2595 0.0762
2596 0.0766
2597 0.0769
2598 0.0765
2599 0.0762
2600 0.0758
2601 0.0750
2602 0.0750
2603 0.0748
2604 0.0745
2605 0.0742
2606 0.0740
2607 0.0738
2608 0.0737
2609 0.0734
2610 0.0733
2611 0.0733
2612 0.0731
2613 0.0729
2614 0.0732
2615 0.0732
2616 0.0736
2617 0.0749
2618 0.0754
2619 0.0762
2620 0.0773
2621 0.0800
2622 0.0815
2623 0.0830
2624 0.0844
2625 0.0873
2626 0.0888
2627 0.0902
2628 0.0917
2629 0.0945
2630 0.0959
2631 0.0975
2632 0.0988
2633 0.1011
2634 0.1020
2635 0.1027
2636 0.1031
2637 0.1041
2638 0.1044
2639 0.1049
2640 0.1055
2641 0.1067
2642 0.1074
2643 0.1082
2644 0.1089
2645 0.1103
2646 0.1109
2647 0.1113
2648 0.1117
2649 0.1126
2650 0.1130
2651 0.1135
2652 0.1138
2653 0.1146
2654 0.1151
2655 0.1155
2656 0.1160
2657 0.1170
2658 0.1176
2659 0.1183
2660 0.1192
2661 0.1213
2662 0.1225
2663 0.1238
2664 0.1249
2665 0.1278
2666 0.1291
2667 0.1303
2668 0.1316
2669 0.1339
2670 0.1349
2671 0.1360
2672 0.1368
2673 0.1386
2674 0.1393
2675 0.1400
2676 0.1406
2677 0.1412
2678 0.1410
2679 0.1407
2680 0.1403
2681 0.1392
2682 0.1385
2683 0.1378
2684 0.1367
2685 0.1343
2686 0.1326
2687 0.1308
2688 0.1289
2689 0.1243
2690 0.1216
2691 0.1187
2692 0.1152
2693 0.1072
2694 0.1027
2695 0.0981
2696 0.0932
2697 0.0829
2698 0.0777
2699 0.0729
2700 0.0681
2701 0.0584
2702 0.0536
2703 0.0489
2704 0.0441
2705 0.0350
2706 0.0308
2707 0.0267
2708 0.0229
2709 0.0163
2710 0.0137
2711 0.0117
2712 0.0100
2713 0.0078
2714 0.0071
2715 0.0067
2716 0.0065
2717 0.0065
2718 0.0067
2719 0.0067
2720 0.0067
2721 0.0060
2722 0.0053
2723 0.0045
2724 0.0035
2725 0.0014
2726 0.0003
2727 -0.0006
2728 -0.0012
2729 -0.0019
2730 -0.0019
2731 -0.0017
2732 -0.0014
2733 -0.0002
2734 0.0006
2735 0.0013
2736 0.0019
2737 0.0026
2738 0.0025
2739 0.0024
2740 0.0020
2741 0.0009
2742 0.0003
2743 -0.0003
2744 -0.0008
2745 -0.0014
2746 -0.0017
2747 -0.0020
2748 -0.0023
2749 -0.0027
2750 -0.0028
2751 -0.0027
2752 -0.0027
2753 -0.0022
2754 -0.0020
2755 -0.0018
2756 -0.0015
2757 -0.0010
2758 -0.0009
2759 -0.0006
2760 -0.0002
2761 0.0002
2762 0.0003
2763 0.0003
2764 0.0001
2765 -0.0000
2766 -0.0001
2767 -0.0001
2768 -0.0001
2769 -0.0004
2770 -0.0004
2771 -0.0004
2772 -0.0006
2773 -0.0008
2774 -0.0008
2775 -0.0007
2776 -0.0004
2777 0.0001
2778 0.0003
2779 0.0006
2780 0.0009
2781 0.0010
2782 0.0010
2783 0.0009
2784 0.0007
2785 0.0002
2786 -0.0002
2787 -0.0006
2788 -0.0010
2789 -0.0016
2790 -0.0018
2791 -0.0019
2792 -0.0020
2793 -0.0021
2794 -0.0020
2795 -0.0020
2796 -0.0020
2797 -0.0019
2798 -0.0019
2799 -0.0018
2800 -0.0017
2801 -0.0018
2802 -0.0018
2803 -0.0019
2804 -0.0020
2805 -0.0020
2806 -0.0022
2807 -0.0023
2808 -0.0025
2809 -0.0029
2810 -0.0031
2811 -0.0031
2812 -0.0032
2813 -0.0033
2814 -0.0034
2815 -0.0036
2816 -0.0037
2817 -0.0037
2818 -0.0038
2819 -0.0038
2820 -0.0038
2821 -0.0037
2822 -0.0037
2823 -0.0037
2824 -0.0037
2825 -0.0037
2826 -0.0037
2827 -0.0037
2828 -0.0037
2829 -0.0038
2830 -0.0038
2831 -0.0038
2832 -0.0039
2833 -0.0039
2834 -0.0040
2835 -0.0040
2836 -0.0040
2837 -0.0041
2838 -0.0041
2839 -0.0042
2840 -0.0042
2841 -0.0043
2842 -0.0043
2843 -0.0044
2844 -0.0044
2845 -0.0045
2846 -0.0045
2847 -0.0046
2848 -0.0046
2849 -0.0047
2850 -0.0047
2851 -0.0048
2852 -0.0048
2853 -0.0049
2854 -0.0049
2855 -0.0049
2856 -0.0050
2857 -0.0051
2858 -0.0051
2859 -0.0051
2860 -0.0052
2861 -0.0053
2862 -0.0053
2863 -0.0053
2864 -0.0054
2865 -0.0055
2866 -0.0055
2867 -0.0056
2868 -0.0056
2869 -0.0057
2870 -0.0058
2871 -0.0058
2872 -0.0058
2873 -0.0059
2874 -0.0060
2875 -0.0060
2876 -0.0061
2877 -0.0062
2878 -0.0062
2879 -0.0063
2880 -0.0063
2881 -0.0064
2882 -0.0065
2883 -0.0065
2884 -0.0066
2885 -0.0067
2886 -0.0067
2887 -0.0068
2888 -0.0069
2889 -0.0070
2890 -0.0071
2891 -0.0071
2892 -0.0072
2893 -0.0073
2894 -0.0074
2895 -0.0075
2896 -0.0075
2897 -0.0076
2898 -0.0077
2899 -0.0077
2900 -0.0078
2901 -0.0079
2902 -0.0079
2903 -0.0080
2904 -0.0081
2905 -0.0082
2906 -0.0082
2907 -0.0082
2908 -0.0083
2909 -0.0084
2910 -0.0084
2911 -0.0084
2912 -0.0084
2913 -0.0084
2914 -0.0084
2915 -0.0085
2916 -0.0085
2917 -0.0086
2918 -0.0086
2919 -0.0085
2920 -0.0086
2921 -0.0089
2922 -0.0089
2923 -0.0090
2924 -0.0090
2925 -0.0089
2926 -0.0088
2927 -0.0086
2928 -0.0084
2929 -0.0083
2930 -0.0081
2931 -0.0078
2932 -0.0077
2933 -0.0070
2934 -0.0068
2935 -0.0066
2936 -0.0060
2937 -0.0052
2938 -0.0045
2939 -0.0037
2940 -0.0034
2941 -0.0028
2942 -0.0025
2943 -0.0024
2944 -0.0020
2945 -0.0013
2946 -0.0010
2947 -0.0005
2948 0.0000
2949 0.0006
2950 0.0009
2951 0.0012
2952 0.0012
2953 0.0017
2954 0.0016
2955 0.0017
2956 0.0019
2957 0.0018
2958 0.0019
2959 0.0023
2960 0.0019
2961 0.0015
2962 0.0016
2963 0.0015
2964 0.0018
2965 0.0029
2966 0.0030
2967 0.0034
2968 0.0033
2969 0.0030
2970 0.0032
2971 0.0031
2972 0.0027
2973 0.0025
2974 0.0014
2975 0.0006
2976 0.0007
2977 0.0013
2978 0.0013
2979 0.0011
2980 0.0003
2981 0.0004
2982 0.0004
2983 0.0002
2984 0.0004
2985 0.0010
2986 0.0009
2987 0.0010
2988 0.0008
2989 0.0008
2990 0.0013
2991 0.0016
2992 0.0016
2993 0.0015
2994 0.0004
2995 -0.0004
2996 -0.0004
2997 -0.0005
2998 -0.0003
2999 0.0000
3000 -0.0002
3001 0.0001
3002 0.0002
3003 -0.0003
3004 -0.0005
3005 -0.0007
3006 -0.0010
3007 -0.0009
3008 -0.0008
3009 -0.0013
3010 -0.0012
3011 -0.0014
3012 -0.0018
3013 -0.0016
3014 -0.0020
3015 -0.0023
3016 -0.0021
3017 -0.0026
3018 -0.0023
3019 -0.0016
3020 -0.0015
3021 -0.0009
3022 -0.0008
3023 -0.0010
3024 -0.0007
3025 -0.0007
3026 -0.0006
3027 0.0000
3028 0.0002
3029 -0.0009
3030 -0.0013
3031 -0.0018
3032 -0.0023
3033 -0.0023
3034 -0.0030
3035 -0.0037
3036 -0.0037
3037 -0.0051
3038 -0.0052
3039 -0.0051
3040 -0.0055
3041 -0.0041
3042 -0.0039
3043 -0.0041
3044 -0.0042
3045 -0.0042
3046 -0.0038
3047 -0.0032
3048 -0.0030
3049 -0.0034
3050 -0.0036
3051 -0.0041
3052 -0.0042
3053 -0.0029
3054 -0.0028
3055 -0.0027
3056 -0.0018
3057 -0.0032
3058 -0.0030
3059 -0.0030
3060 -0.0040
3061 -0.0034
3062 -0.0033
3063 -0.0039
3064 -0.0037
3065 -0.0050
3066 -0.0056
3067 -0.0043
3068 -0.0039
3069 -0.0045
3070 -0.0047
3071 -0.0059
3072 -0.0073
3073 -0.0082
3074 -0.0085
3075 -0.0077
3076 -0.0066
3077 -0.0075
3078 -0.0076
3079 -0.0078
3080 -0.0087
3081 -0.0088
3082 -0.0086
3083 -0.0079
3084 -0.0068
3085 -0.0082
3086 -0.0085
3087 -0.0078
3088 -0.0086
3089 -0.0085
3090 -0.0077
3091 -0.0073
3092 -0.0069
3093 -0.0068
3094 -0.0078
3095 -0.0080
3096 -0.0067
3097 -0.0069
3098 -0.0055
3099 -0.0043
3100 -0.0050
3101 -0.0042
3102 -0.0046
3103 -0.0048
3104 -0.0040
3105 -0.0055
3106 -0.0073
3107 -0.0079
3108 -0.0092
3109 -0.0094
3110 -0.0088
3111 -0.0084
3112 -0.0074
3113 -0.0047
3114 -0.0064
3115 -0.0085
3116 -0.0092
3117 -0.0097
3118 -0.0093
3119 -0.0104
3120 -0.0123
3121 -0.0121
3122 -0.0116
3123 -0.0099
3124 -0.0072
3125 -0.0046
3126 -0.0035
3127 -0.0037
3128 -0.0072
3129 -0.0119
3130 -0.0118
3131 -0.0110
3132 -0.0098
3133 -0.0075
3134 -0.0081
3135 -0.0079
3136 -0.0080
3137 -0.0100
3138 -0.0104
3139 -0.0104
3140 -0.0107
3141 -0.0084
3142 -0.0076
3143 -0.0076
3144 -0.0074
3145 -0.0101
3146 -0.0100
3147 -0.0089
3148 -0.0102
3149 -0.0119
3150 -0.0106
3151 -0.0102
3152 -0.0085
3153 -0.0057
3154 -0.0048
3155 -0.0042
3156 -0.0034
3157 -0.0038
3158 -0.0041
3159 -0.0059
3160 -0.0092
3161 -0.0105
3162 -0.0096
3163 -0.0098
3164 -0.0079
3165 -0.0083
3166 -0.0072
3167 -0.0047
3168 -0.0034
3169 -0.0004
3170 -0.0016
3171 -0.0030
3172 -0.0035
3173 -0.0042
3174 -0.0053
3175 -0.0060
3176 -0.0049
3177 -0.0057
3178 -0.0040
3179 -0.0027
3180 -0.0028
3181 0.0000
3182 -0.0006
3183 -0.0016
3184 -0.0011
3185 -0.0051
3186 -0.0067
3187 -0.0060
3188 -0.0079
3189 -0.0079
3190 -0.0069
3191 -0.0071
3192 -0.0060
3193 -0.0027
3194 0.0000
3195 0.0027
3196 0.0055
3197 0.0058
3198 0.0052
3199 0.0047
3200 0.0032
##END=
