##TITLE= Sgreen
##JCAMP-DX= 4.24
##DATA TYPE= ULTRAVIOLET SPECTRUM
##SAMPLE DESCRIPTION= $$
$$         12:55:06    24/03/27
##SPECTROMETER/DATA SYSTEM= Perkin-Elmer Lambda Series / PECSS
##DATE= 24/03/27
##XUNITS= NANOMETERS
##YUNITS= TRANSMITTANCE
##MAXY= 0.1500
##MINY= -0.0065
##XFACTOR= 1.00
##YFACTOR= 1.0000
##FIRSTX= 200.0
##LASTX= 3200.0
##NPOINTS= 3001
##FIRSTY= 0.0686
##XYDATA= (XY..XY)
200 0.0686
201 0.0486
202 0.0407
203 0.0342
204 0.0288
205 0.0210
206 0.0179
207 0.0152
208 0.0130
209 0.0100
210 0.0087
211 0.0076
212 0.0067
213 0.0052
214 0.0046
215 0.0041
216 0.0036
217 0.0029
218 0.0026
219 0.0024
220 0.0021
221 0.0018
222 0.0017
223 0.0015
224 0.0014
225 0.0012
226 0.0011
227 0.0010
228 0.0009
229 0.0008
230 0.0007
231 0.0007
232 0.0007
233 0.0006
234 0.0006
235 0.0005
236 0.0005
237 0.0005
238 0.0005
239 0.0004
240 0.0004
241 0.0003
242 0.0003
243 0.0003
244 0.0002
245 0.0002
246 0.0002
247 0.0002
248 0.0002
249 0.0003
250 0.0002
251 0.0002
252 0.0002
253 0.0002
254 0.0002
255 0.0002
256 0.0002
257 0.0002
258 0.0002
259 0.0002
260 0.0002
261 0.0002
262 0.0002
263 0.0002
264 0.0002
265 0.0002
266 0.0002
267 0.0002
268 0.0002
269 0.0002
270 0.0002
271 0.0002
272 0.0002
273 0.0002
274 0.0002
275 0.0002
276 0.0002
277 0.0002
278 0.0002
279 0.0001
280 0.0001
281 0.0001
282 0.0001
283 0.0001
284 0.0001
285 0.0001
286 0.0001
287 0.0001
288 0.0000
289 0.0001
290 0.0001
291 0.0000
292 0.0000
293 0.0000
294 0.0000
295 0.0000
296 0.0000
297 -0.0000
298 -0.0000
299 -0.0000
300 -0.0000
301 -0.0001
302 -0.0001
303 -0.0000
304 -0.0001
305 -0.0001
306 -0.0001
307 -0.0000
308 -0.0000
309 -0.0000
310 -0.0000
311 -0.0000
312 0.0000
313 0.0000
314 0.0000
315 0.0001
316 0.0002
317 0.0005
318 0.0007
319 0.0007
320 0.0007
321 0.0006
322 0.0006
323 0.0006
324 0.0006
325 0.0006
326 0.0005
327 0.0005
328 0.0005
329 0.0004
330 0.0004
331 0.0004
332 0.0004
333 0.0003
334 0.0003
335 0.0003
336 0.0003
337 0.0003
338 0.0003
339 0.0003
340 0.0003
341 0.0003
342 0.0003
343 0.0003
344 0.0003
345 0.0002
346 0.0002
347 0.0002
348 0.0002
349 0.0002
350 0.0002
351 0.0002
352 0.0002
353 0.0001
354 0.0001
355 0.0001
356 0.0001
357 0.0000
358 0.0000
359 0.0000
360 -0.0000
361 -0.0001
362 -0.0002
363 -0.0002
364 -0.0003
365 -0.0005
366 -0.0007
367 -0.0008
368 -0.0009
369 -0.0011
370 -0.0012
371 -0.0013
372 -0.0012
373 -0.0009
374 -0.0007
375 -0.0005
376 -0.0002
377 0.0001
378 0.0002
379 0.0001
380 0.0001
381 0.0001
382 0.0001
383 0.0002
384 0.0001
385 0.0001
386 0.0001
387 0.0001
388 0.0001
389 0.0001
390 0.0001
391 0.0001
392 0.0001
393 0.0001
394 0.0001
395 0.0001
396 0.0001
397 0.0001
398 0.0001
399 0.0001
400 0.0001
401 0.0001
402 0.0001
403 0.0001
404 0.0001
405 0.0001
406 0.0001
407 0.0001
408 0.0001
409 0.0001
410 0.0001
411 0.0001
412 0.0001
413 0.0001
414 0.0001
415 0.0001
416 0.0001
417 0.0001
418 0.0001
419 0.0001
420 0.0001
421 0.0001
422 0.0001
423 0.0001
424 0.0001
425 0.0001
426 0.0001
427 0.0001
428 0.0001
429 0.0001
430 0.0001
431 0.0001
432 0.0001
433 0.0001
434 0.0001
435 0.0001
436 0.0001
437 0.0001
438 0.0001
439 0.0001
440 0.0001
441 0.0001
442 0.0001
443 0.0001
444 0.0001
445 0.0001
446 0.0001
447 0.0001
448 0.0001
449 0.0001
450 0.0001
451 0.0001
452 0.0001
453 0.0001
454 0.0002
455 0.0002
456 0.0002
457 0.0002
458 0.0002
459 0.0002
460 0.0002
461 0.0002
462 0.0002
463 0.0002
464 0.0002
465 0.0002
466 0.0002
467 0.0002
468 0.0002
469 0.0002
470 0.0002
471 0.0002
472 0.0001
473 0.0001
474 0.0001
475 0.0000
476 0.0000
477 -0.0000
478 -0.0001
479 -0.0001
480 -0.0001
481 -0.0000
482 -0.0000
483 0.0000
484 0.0000
485 0.0000
486 0.0000
487 0.0000
488 0.0001
489 0.0001
490 0.0001
491 0.0001
492 0.0001
493 0.0001
494 0.0002
495 0.0002
496 0.0002
497 0.0002
498 0.0002
499 0.0002
500 0.0002
501 0.0003
502 0.0003
503 0.0003
504 0.0003
505 0.0003
506 0.0003
507 0.0003
508 0.0002
509 0.0002
510 0.0002
511 0.0002
512 0.0002
513 0.0001
514 0.0001
515 0.0001
516 0.0001
517 0.0001
518 0.0001
519 0.0001
520 0.0001
521 0.0001
522 0.0001
523 0.0001
524 0.0001
525 0.0001
526 0.0001
527 0.0001
528 0.0001
529 0.0001
530 0.0001
531 0.0001
532 0.0001
533 0.0001
534 0.0001
535 0.0001
536 0.0001
537 0.0001
538 0.0001
539 0.0001
540 0.0002
541 0.0001
542 0.0001
543 0.0001
544 0.0001
545 0.0001
546 0.0001
547 0.0001
548 0.0001
549 0.0001
550 0.0000
551 0.0000
552 0.0000
553 0.0000
554 0.0000
555 -0.0000
556 -0.0000
557 -0.0000
558 -0.0000
559 -0.0000
560 0.0000
561 0.0002
562 0.0001
563 0.0001
564 0.0001
565 0.0001
566 0.0001
567 0.0001
568 0.0001
569 0.0001
570 0.0001
571 0.0001
572 0.0001
573 0.0001
574 0.0001
575 0.0001
576 0.0001
577 0.0001
578 0.0001
579 0.0001
580 0.0001
581 0.0001
582 0.0001
583 0.0001
584 0.0001
585 0.0001
586 0.0001
587 0.0001
588 0.0001
589 0.0001
590 0.0001
591 0.0001
592 0.0001
593 0.0001
594 0.0001
595 0.0001
596 0.0001
597 0.0001
598 0.0001
599 0.0001
600 0.0001
601 0.0001
602 0.0001
603 0.0001
604 0.0001
605 0.0001
606 0.0001
607 0.0001
608 0.0001
609 0.0001
610 0.0001
611 0.0001
612 0.0001
613 0.0001
614 0.0001
615 0.0001
616 0.0001
617 0.0001
618 0.0001
619 0.0001
620 0.0001
621 0.0001
622 0.0001
623 0.0001
624 0.0001
625 0.0001
626 0.0001
627 0.0001
628 0.0001
629 0.0001
630 0.0001
631 0.0001
632 0.0001
633 0.0001
634 0.0001
635 0.0001
636 0.0001
637 0.0001
638 0.0001
639 0.0001
640 0.0001
641 0.0001
642 0.0001
643 0.0001
644 0.0001
645 0.0001
646 0.0001
647 0.0001
648 0.0001
649 0.0000
650 0.0000
651 0.0000
652 0.0000
653 0.0000
654 0.0001
655 0.0001
656 0.0001
657 0.0001
658 0.0001
659 0.0000
660 0.0000
661 0.0000
662 0.0000
663 0.0000
664 0.0000
665 0.0000
666 0.0000
667 0.0001
668 0.0001
669 0.0001
670 0.0001
671 0.0001
672 0.0001
673 0.0001
674 0.0000
675 0.0000
676 0.0000
677 0.0000
678 0.0000
679 0.0000
680 0.0000
681 0.0000
682 -0.0000
683 -0.0000
684 -0.0000
685 -0.0001
686 -0.0001
687 -0.0001
688 -0.0000
689 0.0001
690 0.0001
691 0.0001
692 0.0000
693 0.0000
694 0.0000
695 0.0000
696 0.0000
697 0.0000
698 0.0000
699 0.0000
700 0.0000
701 0.0000
702 0.0001
703 0.0001
704 0.0001
705 0.0001
706 0.0001
707 0.0001
708 0.0000
709 0.0000
710 0.0000
711 0.0000
712 0.0000
713 0.0000
714 0.0000
715 0.0000
716 0.0000
717 0.0000
718 0.0000
719 0.0000
720 0.0000
721 0.0000
722 0.0000
723 0.0000
724 0.0000
725 0.0000
726 0.0000
727 0.0000
728 0.0000
729 0.0000
730 0.0000
731 0.0000
732 0.0000
733 0.0000
734 0.0000
735 0.0000
736 0.0000
737 0.0000
738 0.0000
739 0.0000
740 0.0000
741 0.0000
742 0.0000
743 0.0000
744 0.0000
745 0.0000
746 -0.0000
747 -0.0000
748 -0.0001
749 -0.0001
750 -0.0002
751 -0.0002
752 -0.0002
753 -0.0002
754 -0.0002
755 -0.0001
756 -0.0001
757 -0.0001
758 -0.0001
759 -0.0001
760 -0.0001
761 -0.0001
762 -0.0001
763 -0.0001
764 -0.0000
765 -0.0001
766 -0.0000
767 -0.0000
768 -0.0000
769 0.0000
770 0.0000
771 0.0000
772 -0.0000
773 0.0000
774 0.0000
775 0.0000
776 0.0000
777 -0.0000
778 -0.0000
779 -0.0001
780 -0.0001
781 -0.0001
782 -0.0001
783 -0.0001
784 -0.0001
785 -0.0001
786 -0.0001
787 -0.0001
788 -0.0002
789 -0.0002
790 -0.0002
791 -0.0001
792 -0.0000
793 0.0000
794 0.0000
795 0.0000
796 0.0000
797 0.0000
798 0.0001
799 0.0001
800 0.0001
801 0.0002
802 0.0003
803 0.0002
804 0.0002
805 0.0002
806 0.0003
807 0.0003
808 0.0004
809 0.0004
810 0.0004
811 0.0004
812 0.0004
813 0.0004
814 0.0004
815 0.0003
816 0.0003
817 0.0002
818 0.0001
819 0.0000
820 0.0000
821 -0.0001
822 -0.0002
823 -0.0003
824 -0.0004
825 -0.0005
826 -0.0005
827 -0.0006
828 -0.0007
829 -0.0009
830 -0.0010
831 -0.0011
832 -0.0013
833 -0.0017
834 -0.0020
835 -0.0021
836 -0.0021
837 -0.0021
838 -0.0021
839 -0.0021
840 -0.0021
841 -0.0020
842 -0.0020
843 -0.0020
844 -0.0020
845 -0.0020
846 -0.0020
847 -0.0020
848 -0.0020
849 -0.0019
850 -0.0019
851 -0.0018
852 -0.0017
853 -0.0014
854 -0.0010
855 -0.0005
856 0.0001
857 0.0017
858 0.0018
859 0.0010
860 0.0000
861 0.0001
862 0.0001
863 0.0001
864 0.0001
865 -0.0001
866 -0.0002
867 -0.0003
868 -0.0004
869 -0.0002
870 -0.0002
871 -0.0001
872 0.0001
873 0.0002
874 0.0004
875 0.0004
876 0.0003
877 0.0004
878 0.0004
879 0.0005
880 0.0006
881 0.0007
882 0.0006
883 0.0006
884 0.0006
885 0.0005
886 0.0004
887 0.0003
888 0.0003
889 0.0002
890 0.0001
891 0.0002
892 0.0003
893 0.0003
894 0.0004
895 0.0005
896 0.0005
897 0.0006
898 0.0006
899 0.0005
900 0.0006
901 0.0005
902 0.0004
903 0.0004
904 0.0004
905 0.0004
906 0.0005
907 0.0005
908 0.0005
909 0.0006
910 0.0006
911 0.0006
912 0.0008
913 0.0008
914 0.0008
915 0.0008
916 0.0007
917 0.0008
918 0.0008
919 0.0007
920 0.0009
921 0.0010
922 0.0011
923 0.0011
924 0.0011
925 0.0010
926 0.0009
927 0.0009
928 0.0008
929 0.0008
930 0.0007
931 0.0007
932 0.0009
933 0.0011
934 0.0013
935 0.0015
936 0.0014
937 0.0014
938 0.0013
939 0.0012
940 0.0012
941 0.0011
942 0.0010
943 0.0009
944 0.0008
945 0.0007
946 0.0008
947 0.0008
948 0.0007
949 0.0007
950 0.0007
951 0.0008
952 0.0010
953 0.0009
954 0.0009
955 0.0008
956 0.0008
957 0.0009
958 0.0008
959 0.0007
960 0.0008
961 0.0008
962 0.0007
963 0.0007
964 0.0006
965 0.0008
966 0.0009
967 0.0009
968 0.0008
969 0.0006
970 0.0006
971 0.0007
972 0.0009
973 0.0010
974 0.0010
975 0.0009
976 0.0007
977 0.0008
978 0.0008
979 0.0008
980 0.0009
981 0.0008
982 0.0008
983 0.0009
984 0.0009
985 0.0010
986 0.0011
987 0.0011
988 0.0011
989 0.0012
990 0.0011
991 0.0010
992 0.0010
993 0.0008
994 0.0009
995 0.0010
996 0.0010
997 0.0013
998 0.0014
999 0.0013
1000 0.0015
1001 0.0013
1002 0.0013
1003 0.0013
1004 0.0013
1005 0.0012
1006 0.0012
1007 0.0012
1008 0.0012
1009 0.0012
1010 0.0012
1011 0.0013
1012 0.0014
1013 0.0015
1014 0.0015
1015 0.0015
1016 0.0014
1017 0.0012
1018 0.0012
1019 0.0011
1020 0.0011
1021 0.0011
1022 0.0012
1023 0.0014
1024 0.0015
1025 0.0016
1026 0.0016
1027 0.0016
1028 0.0016
1029 0.0016
1030 0.0014
1031 0.0014
1032 0.0016
1033 0.0017
1034 0.0018
1035 0.0018
1036 0.0017
1037 0.0016
1038 0.0016
1039 0.0014
1040 0.0015
1041 0.0016
1042 0.0016
1043 0.0017
1044 0.0016
1045 0.0017
1046 0.0016
1047 0.0016
1048 0.0016
1049 0.0015
1050 0.0015
1051 0.0015
1052 0.0017
1053 0.0019
1054 0.0021
1055 0.0022
1056 0.0021
1057 0.0022
1058 0.0022
1059 0.0021
1060 0.0021
1061 0.0020
1062 0.0020
1063 0.0022
1064 0.0022
1065 0.0023
1066 0.0024
1067 0.0024
1068 0.0023
1069 0.0021
1070 0.0021
1071 0.0021
1072 0.0021
1073 0.0020
1074 0.0020
1075 0.0020
1076 0.0021
1077 0.0023
1078 0.0022
1079 0.0022
1080 0.0023
1081 0.0023
1082 0.0023
1083 0.0023
1084 0.0022
1085 0.0024
1086 0.0023
1087 0.0023
1088 0.0023
1089 0.0023
1090 0.0022
1091 0.0023
1092 0.0025
1093 0.0026
1094 0.0027
1095 0.0027
1096 0.0027
1097 0.0028
1098 0.0027
1099 0.0026
1100 0.0026
1101 0.0026
1102 0.0027
1103 0.0027
1104 0.0027
1105 0.0027
1106 0.0027
1107 0.0027
1108 0.0027
1109 0.0028
1110 0.0029
1111 0.0031
1112 0.0033
1113 0.0035
1114 0.0036
1115 0.0036
1116 0.0035
1117 0.0036
1118 0.0034
1119 0.0033
1120 0.0034
1121 0.0033
1122 0.0033
1123 0.0035
1124 0.0036
1125 0.0043
1126 0.0044
1127 0.0044
1128 0.0043
1129 0.0040
1130 0.0039
1131 0.0039
1132 0.0040
1133 0.0041
1134 0.0042
1135 0.0041
1136 0.0040
1137 0.0039
1138 0.0038
1139 0.0038
1140 0.0040
1141 0.0039
1142 0.0039
1143 0.0038
1144 0.0037
1145 0.0039
1146 0.0039
1147 0.0039
1148 0.0039
1149 0.0037
1150 0.0037
1151 0.0037
1152 0.0038
1153 0.0038
1154 0.0038
1155 0.0036
1156 0.0034
1157 0.0034
1158 0.0033
1159 0.0032
1160 0.0032
1161 0.0030
1162 0.0029
1163 0.0029
1164 0.0028
1165 0.0029
1166 0.0029
1167 0.0028
1168 0.0029
1169 0.0030
1170 0.0029
1171 0.0029
1172 0.0028
1173 0.0025
1174 0.0025
1175 0.0025
1176 0.0025
1177 0.0028
1178 0.0028
1179 0.0026
1180 0.0026
1181 0.0026
1182 0.0026
1183 0.0026
1184 0.0025
1185 0.0027
1186 0.0029
1187 0.0032
1188 0.0039
1189 0.0055
1190 0.0056
1191 0.0055
1192 0.0055
1193 0.0053
1194 0.0051
1195 0.0051
1196 0.0051
1197 0.0052
1198 0.0053
1199 0.0052
1200 0.0052
1201 0.0053
1202 0.0051
1203 0.0050
1204 0.0051
1205 0.0051
1206 0.0051
1207 0.0051
1208 0.0051
1209 0.0051
1210 0.0052
1211 0.0052
1212 0.0053
1213 0.0054
1214 0.0053
1215 0.0054
1216 0.0054
1217 0.0055
1218 0.0057
1219 0.0057
1220 0.0056
1221 0.0056
1222 0.0055
1223 0.0055
1224 0.0056
1225 0.0057
1226 0.0058
1227 0.0059
1228 0.0059
1229 0.0060
1230 0.0061
1231 0.0061
1232 0.0061
1233 0.0062
1234 0.0062
1235 0.0063
1236 0.0064
1237 0.0063
1238 0.0064
1239 0.0064
1240 0.0064
1241 0.0069
1242 0.0068
1243 0.0069
1244 0.0068
1245 0.0066
1246 0.0067
1247 0.0067
1248 0.0067
1249 0.0068
1250 0.0068
1251 0.0068
1252 0.0069
1253 0.0068
1254 0.0067
1255 0.0068
1256 0.0070
1257 0.0074
1258 0.0076
1259 0.0075
1260 0.0075
1261 0.0077
1262 0.0077
1263 0.0078
1264 0.0078
1265 0.0078
1266 0.0078
1267 0.0078
1268 0.0077
1269 0.0075
1270 0.0075
1271 0.0074
1272 0.0075
1273 0.0077
1274 0.0078
1275 0.0080
1276 0.0081
1277 0.0082
1278 0.0084
1279 0.0085
1280 0.0086
1281 0.0086
1282 0.0086
1283 0.0087
1284 0.0089
1285 0.0089
1286 0.0089
1287 0.0088
1288 0.0087
1289 0.0087
1290 0.0087
1291 0.0086
1292 0.0086
1293 0.0085
1294 0.0085
1295 0.0086
1296 0.0088
1297 0.0091
1298 0.0093
1299 0.0094
1300 0.0094
1301 0.0096
1302 0.0097
1303 0.0097
1304 0.0097
1305 0.0096
1306 0.0096
1307 0.0096
1308 0.0096
1309 0.0096
1310 0.0096
1311 0.0096
1312 0.0098
1313 0.0099
1314 0.0099
1315 0.0101
1316 0.0101
1317 0.0101
1318 0.0101
1319 0.0100
1320 0.0100
1321 0.0103
1322 0.0104
1323 0.0105
1324 0.0106
1325 0.0106
1326 0.0106
1327 0.0106
1328 0.0105
1329 0.0103
1330 0.0102
1331 0.0102
1332 0.0104
1333 0.0106
1334 0.0107
1335 0.0109
1336 0.0109
1337 0.0109
1338 0.0109
1339 0.0108
1340 0.0108
1341 0.0107
1342 0.0106
1343 0.0106
1344 0.0107
1345 0.0106
1346 0.0106
1347 0.0106
1348 0.0105
1349 0.0105
1350 0.0105
1351 0.0106
1352 0.0107
1353 0.0110
1354 0.0112
1355 0.0115
1356 0.0118
1357 0.0124
1358 0.0128
1359 0.0130
1360 0.0132
1361 0.0134
1362 0.0134
1363 0.0133
1364 0.0134
1365 0.0133
1366 0.0134
1367 0.0133
1368 0.0130
1369 0.0125
1370 0.0122
1371 0.0119
1372 0.0117
1373 0.0116
1374 0.0117
1375 0.0120
1376 0.0124
1377 0.0136
1378 0.0142
1379 0.0144
1380 0.0145
1381 0.0143
1382 0.0139
1383 0.0137
1384 0.0135
1385 0.0132
1386 0.0132
1387 0.0132
1388 0.0131
1389 0.0134
1390 0.0137
1391 0.0139
1392 0.0141
1393 0.0143
1394 0.0144
1395 0.0146
1396 0.0148
1397 0.0153
1398 0.0155
1399 0.0156
1400 0.0155
1401 0.0158
1402 0.0160
1403 0.0162
1404 0.0163
1405 0.0160
1406 0.0161
1407 0.0161
1408 0.0159
1409 0.0157
1410 0.0156
1411 0.0157
1412 0.0157
1413 0.0154
1414 0.0154
1415 0.0156
1416 0.0157
1417 0.0158
1418 0.0159
1419 0.0159
1420 0.0159
1421 0.0162
1422 0.0162
1423 0.0163
1424 0.0165
1425 0.0165
1426 0.0166
1427 0.0166
1428 0.0166
1429 0.0167
1430 0.0166
1431 0.0167
1432 0.0169
1433 0.0172
1434 0.0173
1435 0.0174
1436 0.0174
1437 0.0173
1438 0.0174
1439 0.0173
1440 0.0174
1441 0.0176
1442 0.0177
1443 0.0178
1444 0.0179
1445 0.0179
1446 0.0181
1447 0.0182
1448 0.0183
1449 0.0185
1450 0.0184
1451 0.0184
1452 0.0184
1453 0.0184
1454 0.0185
1455 0.0187
1456 0.0188
1457 0.0190
1458 0.0191
1459 0.0190
1460 0.0191
1461 0.0194
1462 0.0194
1463 0.0194
1464 0.0194
1465 0.0195
1466 0.0198
1467 0.0199
1468 0.0200
1469 0.0205
1470 0.0205
1471 0.0206
1472 0.0207
1473 0.0205
1474 0.0205
1475 0.0206
1476 0.0206
1477 0.0208
1478 0.0209
1479 0.0207
1480 0.0207
1481 0.0208
1482 0.0208
1483 0.0209
1484 0.0210
1485 0.0212
1486 0.0215
1487 0.0217
1488 0.0218
1489 0.0222
1490 0.0223
1491 0.0223
1492 0.0223
1493 0.0221
1494 0.0222
1495 0.0223
1496 0.0223
1497 0.0227
1498 0.0228
1499 0.0228
1500 0.0228
1501 0.0231
1502 0.0232
1503 0.0233
1504 0.0234
1505 0.0235
1506 0.0237
1507 0.0237
1508 0.0238
1509 0.0241
1510 0.0241
1511 0.0242
1512 0.0242
1513 0.0243
1514 0.0243
1515 0.0244
1516 0.0244
1517 0.0246
1518 0.0248
1519 0.0248
1520 0.0249
1521 0.0254
1522 0.0255
1523 0.0257
1524 0.0258
1525 0.0259
1526 0.0260
1527 0.0260
1528 0.0260
1529 0.0263
1530 0.0263
1531 0.0263
1532 0.0263
1533 0.0261
1534 0.0262
1535 0.0263
1536 0.0264
1537 0.0267
1538 0.0268
1539 0.0268
1540 0.0269
1541 0.0269
1542 0.0269
1543 0.0270
1544 0.0271
1545 0.0271
1546 0.0273
1547 0.0275
1548 0.0277
1549 0.0280
1550 0.0280
1551 0.0281
1552 0.0283
1553 0.0284
1554 0.0285
1555 0.0288
1556 0.0290
1557 0.0293
1558 0.0295
1559 0.0295
1560 0.0295
1561 0.0296
1562 0.0296
1563 0.0296
1564 0.0297
1565 0.0298
1566 0.0299
1567 0.0299
1568 0.0300
1569 0.0301
1570 0.0301
1571 0.0301
1572 0.0302
1573 0.0304
1574 0.0305
1575 0.0306
1576 0.0307
1577 0.0310
1578 0.0311
1579 0.0309
1580 0.0310
1581 0.0315
1582 0.0317
1583 0.0320
1584 0.0321
1585 0.0322
1586 0.0322
1587 0.0321
1588 0.0320
1589 0.0321
1590 0.0322
1591 0.0323
1592 0.0325
1593 0.0324
1594 0.0325
1595 0.0327
1596 0.0329
1597 0.0332
1598 0.0333
1599 0.0334
1600 0.0335
1601 0.0338
1602 0.0338
1603 0.0339
1604 0.0341
1605 0.0341
1606 0.0344
1607 0.0345
1608 0.0346
1609 0.0347
1610 0.0347
1611 0.0347
1612 0.0350
1613 0.0351
1614 0.0352
1615 0.0353
1616 0.0354
1617 0.0355
1618 0.0355
1619 0.0354
1620 0.0354
1621 0.0355
1622 0.0356
1623 0.0357
1624 0.0359
1625 0.0360
1626 0.0362
1627 0.0363
1628 0.0363
1629 0.0365
1630 0.0366
1631 0.0366
1632 0.0368
1633 0.0370
1634 0.0371
1635 0.0372
1636 0.0372
1637 0.0374
1638 0.0375
1639 0.0375
1640 0.0375
1641 0.0376
1642 0.0377
1643 0.0378
1644 0.0379
1645 0.0381
1646 0.0384
1647 0.0385
1648 0.0385
1649 0.0386
1650 0.0386
1651 0.0386
1652 0.0386
1653 0.0385
1654 0.0386
1655 0.0386
1656 0.0385
1657 0.0386
1658 0.0387
1659 0.0386
1660 0.0387
1661 0.0389
1662 0.0390
1663 0.0393
1664 0.0396
1665 0.0398
1666 0.0401
1667 0.0402
1668 0.0405
1669 0.0413
1670 0.0414
1671 0.0415
1672 0.0416
1673 0.0415
1674 0.0413
1675 0.0413
1676 0.0412
1677 0.0412
1678 0.0411
1679 0.0410
1680 0.0410
1681 0.0407
1682 0.0405
1683 0.0403
1684 0.0398
1685 0.0385
1686 0.0378
1687 0.0371
1688 0.0363
1689 0.0352
1690 0.0348
1691 0.0347
1692 0.0347
1693 0.0346
1694 0.0348
1695 0.0349
1696 0.0347
1697 0.0341
1698 0.0336
1699 0.0330
1700 0.0324
1701 0.0312
1702 0.0307
1703 0.0303
1704 0.0300
1705 0.0298
1706 0.0299
1707 0.0301
1708 0.0304
1709 0.0312
1710 0.0314
1711 0.0317
1712 0.0320
1713 0.0320
1714 0.0320
1715 0.0318
1716 0.0316
1717 0.0311
1718 0.0307
1719 0.0303
1720 0.0300
1721 0.0294
1722 0.0292
1723 0.0293
1724 0.0293
1725 0.0299
1726 0.0302
1727 0.0305
1728 0.0307
1729 0.0311
1730 0.0311
1731 0.0312
1732 0.0313
1733 0.0315
1734 0.0318
1735 0.0322
1736 0.0327
1737 0.0342
1738 0.0350
1739 0.0356
1740 0.0363
1741 0.0376
1742 0.0381
1743 0.0387
1744 0.0391
1745 0.0395
1746 0.0398
1747 0.0400
1748 0.0402
1749 0.0407
1750 0.0409
1751 0.0411
1752 0.0413
1753 0.0418
1754 0.0421
1755 0.0425
1756 0.0428
1757 0.0432
1758 0.0433
1759 0.0434
1760 0.0436
1761 0.0439
1762 0.0440
1763 0.0443
1764 0.0446
1765 0.0453
1766 0.0457
1767 0.0460
1768 0.0462
1769 0.0467
1770 0.0468
1771 0.0470
1772 0.0472
1773 0.0474
1774 0.0474
1775 0.0474
1776 0.0472
1777 0.0470
1778 0.0470
1779 0.0470
1780 0.0472
1781 0.0476
1782 0.0479
1783 0.0483
1784 0.0485
1785 0.0490
1786 0.0492
1787 0.0493
1788 0.0495
1789 0.0496
1790 0.0496
1791 0.0497
1792 0.0498
1793 0.0498
1794 0.0498
1795 0.0499
1796 0.0500
1797 0.0503
1798 0.0504
1799 0.0504
1800 0.0505
1801 0.0506
1802 0.0506
1803 0.0507
1804 0.0508
1805 0.0510
1806 0.0511
1807 0.0512
1808 0.0512
1809 0.0513
1810 0.0512
1811 0.0513
1812 0.0515
1813 0.0517
1814 0.0519
1815 0.0520
1816 0.0520
1817 0.0524
1818 0.0524
1819 0.0523
1820 0.0523
1821 0.0523
1822 0.0523
1823 0.0526
1824 0.0527
1825 0.0531
1826 0.0534
1827 0.0536
1828 0.0537
1829 0.0545
1830 0.0550
1831 0.0555
1832 0.0560
1833 0.0570
1834 0.0574
1835 0.0578
1836 0.0580
1837 0.0585
1838 0.0586
1839 0.0587
1840 0.0589
1841 0.0595
1842 0.0600
1843 0.0606
1844 0.0611
1845 0.0619
1846 0.0622
1847 0.0624
1848 0.0624
1849 0.0628
1850 0.0630
1851 0.0633
1852 0.0635
1853 0.0637
1854 0.0638
1855 0.0639
1856 0.0639
1857 0.0638
1858 0.0636
1859 0.0633
1860 0.0633
1861 0.0633
1862 0.0634
1863 0.0638
1864 0.0642
1865 0.0658
1866 0.0666
1867 0.0672
1868 0.0678
1869 0.0685
1870 0.0687
1871 0.0688
1872 0.0688
1873 0.0681
1874 0.0677
1875 0.0674
1876 0.0673
1877 0.0674
1878 0.0674
1879 0.0673
1880 0.0673
1881 0.0674
1882 0.0675
1883 0.0676
1884 0.0676
1885 0.0677
1886 0.0678
1887 0.0679
1888 0.0681
1889 0.0681
1890 0.0679
1891 0.0679
1892 0.0678
1893 0.0679
1894 0.0681
1895 0.0685
1896 0.0688
1897 0.0693
1898 0.0694
1899 0.0696
1900 0.0699
1901 0.0704
1902 0.0706
1903 0.0708
1904 0.0707
1905 0.0707
1906 0.0707
1907 0.0705
1908 0.0703
1909 0.0700
1910 0.0698
1911 0.0696
1912 0.0695
1913 0.0693
1914 0.0694
1915 0.0695
1916 0.0696
1917 0.0704
1918 0.0707
1919 0.0709
1920 0.0712
1921 0.0718
1922 0.0721
1923 0.0727
1924 0.0730
1925 0.0735
1926 0.0737
1927 0.0740
1928 0.0742
1929 0.0747
1930 0.0748
1931 0.0751
1932 0.0754
1933 0.0757
1934 0.0760
1935 0.0763
1936 0.0765
1937 0.0769
1938 0.0770
1939 0.0771
1940 0.0773
1941 0.0776
1942 0.0778
1943 0.0781
1944 0.0782
1945 0.0786
1946 0.0788
1947 0.0791
1948 0.0793
1949 0.0796
1950 0.0795
1951 0.0796
1952 0.0796
1953 0.0798
1954 0.0800
1955 0.0802
1956 0.0804
1957 0.0808
1958 0.0810
1959 0.0812
1960 0.0814
1961 0.0816
1962 0.0817
1963 0.0820
1964 0.0821
1965 0.0822
1966 0.0823
1967 0.0824
1968 0.0825
1969 0.0825
1970 0.0826
1971 0.0829
1972 0.0831
1973 0.0835
1974 0.0838
1975 0.0840
1976 0.0841
1977 0.0844
1978 0.0845
1979 0.0848
1980 0.0852
1981 0.0858
1982 0.0859
1983 0.0862
1984 0.0862
1985 0.0867
1986 0.0870
1987 0.0872
1988 0.0875
1989 0.0880
1990 0.0881
1991 0.0883
1992 0.0883
1993 0.0883
1994 0.0885
1995 0.0887
1996 0.0887
1997 0.0890
1998 0.0890
1999 0.0890
2000 0.0891
2001 0.0894
2002 0.0895
2003 0.0897
2004 0.0899
2005 0.0902
2006 0.0904
2007 0.0905
2008 0.0906
2009 0.0908
2010 0.0909
2011 0.0911
2012 0.0914
2013 0.0916
2014 0.0918
2015 0.0918
2016 0.0917
2017 0.0922
2018 0.0923
2019 0.0925
2020 0.0927
2021 0.0929
2022 0.0931
2023 0.0934
2024 0.0936
2025 0.0938
2026 0.0940
2027 0.0941
2028 0.0943
2029 0.0945
2030 0.0946
2031 0.0948
2032 0.0949
2033 0.0950
2034 0.0952
2035 0.0954
2036 0.0954
2037 0.0958
2038 0.0959
2039 0.0959
2040 0.0961
2041 0.0964
2042 0.0966
2043 0.0969
2044 0.0970
2045 0.0972
2046 0.0974
2047 0.0974
2048 0.0974
2049 0.0977
2050 0.0978
2051 0.0979
2052 0.0980
2053 0.0980
2054 0.0981
2055 0.0983
2056 0.0984
2057 0.0987
2058 0.0987
2059 0.0989
2060 0.0991
2061 0.0993
2062 0.0994
2063 0.0995
2064 0.0996
2065 0.1000
2066 0.1003
2067 0.1003
2068 0.1003
2069 0.1005
2070 0.1005
2071 0.1006
2072 0.1008
2073 0.1009
2074 0.1011
2075 0.1013
2076 0.1014
2077 0.1019
2078 0.1020
2079 0.1021
2080 0.1023
2081 0.1025
2082 0.1027
2083 0.1030
2084 0.1031
2085 0.1035
2086 0.1036
2087 0.1037
2088 0.1039
2089 0.1043
2090 0.1045
2091 0.1047
2092 0.1048
2093 0.1051
2094 0.1054
2095 0.1056
2096 0.1058
2097 0.1063
2098 0.1064
2099 0.1065
2100 0.1067
2101 0.1069
2102 0.1071
2103 0.1073
2104 0.1073
2105 0.1077
2106 0.1080
2107 0.1082
2108 0.1083
2109 0.1086
2110 0.1086
2111 0.1088
2112 0.1089
2113 0.1092
2114 0.1094
2115 0.1096
2116 0.1098
2117 0.1103
2118 0.1104
2119 0.1105
2120 0.1107
2121 0.1108
2122 0.1109
2123 0.1111
2124 0.1112
2125 0.1115
2126 0.1117
2127 0.1118
2128 0.1120
2129 0.1123
2130 0.1124
2131 0.1126
2132 0.1128
2133 0.1131
2134 0.1134
2135 0.1136
2136 0.1136
2137 0.1139
2138 0.1138
2139 0.1137
2140 0.1138
2141 0.1138
2142 0.1139
2143 0.1140
2144 0.1138
2145 0.1136
2146 0.1136
2147 0.1135
2148 0.1135
2149 0.1137
2150 0.1138
2151 0.1141
2152 0.1143
2153 0.1146
2154 0.1148
2155 0.1149
2156 0.1151
2157 0.1159
2158 0.1161
2159 0.1164
2160 0.1167
2161 0.1170
2162 0.1172
2163 0.1174
2164 0.1174
2165 0.1174
2166 0.1175
2167 0.1174
2168 0.1175
2169 0.1174
2170 0.1175
2171 0.1176
2172 0.1177
2173 0.1176
2174 0.1176
2175 0.1175
2176 0.1174
2177 0.1176
2178 0.1174
2179 0.1174
2180 0.1174
2181 0.1171
2182 0.1172
2183 0.1173
2184 0.1173
2185 0.1177
2186 0.1178
2187 0.1179
2188 0.1181
2189 0.1183
2190 0.1184
2191 0.1186
2192 0.1188
2193 0.1192
2194 0.1195
2195 0.1196
2196 0.1197
2197 0.1200
2198 0.1200
2199 0.1201
2200 0.1203
2201 0.1206
2202 0.1208
2203 0.1210
2204 0.1211
2205 0.1213
2206 0.1214
2207 0.1214
2208 0.1215
2209 0.1216
2210 0.1216
2211 0.1217
2212 0.1217
2213 0.1217
2214 0.1217
2215 0.1217
2216 0.1217
2217 0.1218
2218 0.1218
2219 0.1219
2220 0.1220
2221 0.1218
2222 0.1218
2223 0.1219
2224 0.1217
2225 0.1217
2226 0.1216
2227 0.1215
2228 0.1214
2229 0.1211
2230 0.1210
2231 0.1209
2232 0.1207
2233 0.1202
2234 0.1199
2235 0.1194
2236 0.1190
2237 0.1181
2238 0.1175
2239 0.1169
2240 0.1164
2241 0.1151
2242 0.1143
2243 0.1135
2244 0.1125
2245 0.1104
2246 0.1093
2247 0.1081
2248 0.1069
2249 0.1037
2250 0.1020
2251 0.1001
2252 0.0982
2253 0.0939
2254 0.0917
2255 0.0893
2256 0.0868
2257 0.0817
2258 0.0789
2259 0.0762
2260 0.0736
2261 0.0683
2262 0.0658
2263 0.0632
2264 0.0606
2265 0.0557
2266 0.0534
2267 0.0511
2268 0.0490
2269 0.0450
2270 0.0432
2271 0.0415
2272 0.0399
2273 0.0374
2274 0.0365
2275 0.0357
2276 0.0350
2277 0.0344
2278 0.0344
2279 0.0346
2280 0.0348
2281 0.0352
2282 0.0356
2283 0.0359
2284 0.0362
2285 0.0370
2286 0.0373
2287 0.0376
2288 0.0377
2289 0.0377
2290 0.0375
2291 0.0374
2292 0.0369
2293 0.0357
2294 0.0350
2295 0.0340
2296 0.0329
2297 0.0305
2298 0.0291
2299 0.0277
2300 0.0263
2301 0.0232
2302 0.0218
2303 0.0203
2304 0.0187
2305 0.0162
2306 0.0150
2307 0.0138
2308 0.0128
2309 0.0114
2310 0.0109
2311 0.0107
2312 0.0105
2313 0.0105
2314 0.0110
2315 0.0114
2316 0.0118
2317 0.0131
2318 0.0137
2319 0.0144
2320 0.0153
2321 0.0168
2322 0.0177
2323 0.0184
2324 0.0190
2325 0.0203
2326 0.0209
2327 0.0214
2328 0.0220
2329 0.0227
2330 0.0230
2331 0.0233
2332 0.0235
2333 0.0237
2334 0.0238
2335 0.0237
2336 0.0235
2337 0.0231
2338 0.0227
2339 0.0225
2340 0.0222
2341 0.0213
2342 0.0210
2343 0.0205
2344 0.0198
2345 0.0185
2346 0.0178
2347 0.0171
2348 0.0164
2349 0.0152
2350 0.0146
2351 0.0143
2352 0.0139
2353 0.0135
2354 0.0135
2355 0.0135
2356 0.0135
2357 0.0140
2358 0.0142
2359 0.0146
2360 0.0149
2361 0.0157
2362 0.0163
2363 0.0168
2364 0.0172
2365 0.0182
2366 0.0185
2367 0.0188
2368 0.0192
2369 0.0197
2370 0.0201
2371 0.0205
2372 0.0208
2373 0.0215
2374 0.0220
2375 0.0223
2376 0.0227
2377 0.0236
2378 0.0239
2379 0.0243
2380 0.0247
2381 0.0254
2382 0.0258
2383 0.0260
2384 0.0261
2385 0.0266
2386 0.0267
2387 0.0267
2388 0.0267
2389 0.0265
2390 0.0265
2391 0.0265
2392 0.0264
2393 0.0264
2394 0.0264
2395 0.0263
2396 0.0264
2397 0.0266
2398 0.0266
2399 0.0268
2400 0.0269
2401 0.0272
2402 0.0276
2403 0.0279
2404 0.0283
2405 0.0291
2406 0.0293
2407 0.0296
2408 0.0300
2409 0.0307
2410 0.0311
2411 0.0315
2412 0.0317
2413 0.0321
2414 0.0322
2415 0.0321
2416 0.0321
2417 0.0322
2418 0.0321
2419 0.0320
2420 0.0318
2421 0.0312
2422 0.0310
2423 0.0305
2424 0.0299
2425 0.0292
2426 0.0287
2427 0.0282
2428 0.0277
2429 0.0269
2430 0.0268
2431 0.0269
2432 0.0271
2433 0.0280
2434 0.0284
2435 0.0288
2436 0.0293
2437 0.0302
2438 0.0306
2439 0.0309
2440 0.0313
2441 0.0321
2442 0.0324
2443 0.0326
2444 0.0327
2445 0.0330
2446 0.0330
2447 0.0330
2448 0.0330
2449 0.0325
2450 0.0322
2451 0.0320
2452 0.0317
2453 0.0312
2454 0.0310
2455 0.0307
2456 0.0305
2457 0.0304
2458 0.0304
2459 0.0307
2460 0.0309
2461 0.0312
2462 0.0318
2463 0.0323
2464 0.0329
2465 0.0349
2466 0.0358
2467 0.0368
2468 0.0379
2469 0.0399
2470 0.0412
2471 0.0426
2472 0.0438
2473 0.0463
2474 0.0474
2475 0.0484
2476 0.0495
2477 0.0516
2478 0.0524
2479 0.0534
2480 0.0542
2481 0.0557
2482 0.0565
2483 0.0573
2484 0.0580
2485 0.0598
2486 0.0604
2487 0.0610
2488 0.0618
2489 0.0629
2490 0.0635
2491 0.0641
2492 0.0646
2493 0.0659
2494 0.0665
2495 0.0670
2496 0.0675
2497 0.0687
2498 0.0692
2499 0.0697
2500 0.0701
2501 0.0708
2502 0.0715
2503 0.0721
2504 0.0727
2505 0.0746
2506 0.0754
2507 0.0762
2508 0.0772
2509 0.0788
2510 0.0798
2511 0.0806
2512 0.0813
2513 0.0828
2514 0.0835
2515 0.0842
2516 0.0850
2517 0.0867
2518 0.0873
2519 0.0879
2520 0.0885
2521 0.0892
2522 0.0895
2523 0.0898
2524 0.0901
2525 0.0911
2526 0.0913
2527 0.0915
2528 0.0917
2529 0.0917
2530 0.0919
2531 0.0918
2532 0.0917
2533 0.0917
2534 0.0917
2535 0.0916
2536 0.0917
2537 0.0916
2538 0.0914
2539 0.0915
2540 0.0916
2541 0.0914
2542 0.0913
2543 0.0910
2544 0.0907
2545 0.0907
2546 0.0906
2547 0.0907
2548 0.0909
2549 0.0910
2550 0.0916
2551 0.0923
2552 0.0926
2553 0.0936
2554 0.0941
2555 0.0945
2556 0.0953
2557 0.0970
2558 0.0976
2559 0.0982
2560 0.0986
2561 0.0992
2562 0.0998
2563 0.1002
2564 0.1006
2565 0.1019
2566 0.1022
2567 0.1027
2568 0.1034
2569 0.1037
2570 0.1042
2571 0.1045
2572 0.1046
2573 0.1056
2574 0.1062
2575 0.1067
2576 0.1074
2577 0.1090
2578 0.1097
2579 0.1106
2580 0.1114
2581 0.1130
2582 0.1141
2583 0.1149
2584 0.1157
2585 0.1175
2586 0.1180
2587 0.1186
2588 0.1194
2589 0.1203
2590 0.1209
2591 0.1216
2592 0.1221
2593 0.1230
2594 0.1235
2595 0.1238
2596 0.1242
2597 0.1247
2598 0.1250
2599 0.1253
2600 0.1254
2601 0.1255
2602 0.1257
2603 0.1258
2604 0.1258
2605 0.1262
2606 0.1263
2607 0.1264
2608 0.1265
2609 0.1261
2610 0.1262
2611 0.1261
2612 0.1259
2613 0.1254
2614 0.1253
2615 0.1249
2616 0.1247
2617 0.1243
2618 0.1239
2619 0.1236
2620 0.1234
2621 0.1242
2622 0.1246
2623 0.1253
2624 0.1261
2625 0.1274
2626 0.1280
2627 0.1287
2628 0.1291
2629 0.1301
2630 0.1305
2631 0.1308
2632 0.1312
2633 0.1317
2634 0.1317
2635 0.1319
2636 0.1319
2637 0.1319
2638 0.1318
2639 0.1315
2640 0.1312
2641 0.1307
2642 0.1305
2643 0.1303
2644 0.1301
2645 0.1295
2646 0.1291
2647 0.1285
2648 0.1277
2649 0.1263
2650 0.1256
2651 0.1248
2652 0.1242
2653 0.1228
2654 0.1223
2655 0.1222
2656 0.1221
2657 0.1225
2658 0.1228
2659 0.1231
2660 0.1236
2661 0.1255
2662 0.1266
2663 0.1278
2664 0.1292
2665 0.1319
2666 0.1333
2667 0.1346
2668 0.1357
2669 0.1380
2670 0.1390
2671 0.1400
2672 0.1410
2673 0.1430
2674 0.1439
2675 0.1448
2676 0.1455
2677 0.1466
2678 0.1470
2679 0.1474
2680 0.1478
2681 0.1486
2682 0.1488
2683 0.1490
2684 0.1493
2685 0.1493
2686 0.1495
2687 0.1496
2688 0.1497
2689 0.1500
2690 0.1500
2691 0.1500
2692 0.1499
2693 0.1492
2694 0.1487
2695 0.1484
2696 0.1479
2697 0.1470
2698 0.1466
2699 0.1460
2700 0.1454
2701 0.1440
2702 0.1430
2703 0.1420
2704 0.1408
2705 0.1376
2706 0.1358
2707 0.1337
2708 0.1312
2709 0.1260
2710 0.1234
2711 0.1209
2712 0.1187
2713 0.1153
2714 0.1141
2715 0.1134
2716 0.1131
2717 0.1144
2718 0.1157
2719 0.1173
2720 0.1191
2721 0.1233
2722 0.1252
2723 0.1272
2724 0.1289
2725 0.1315
2726 0.1325
2727 0.1334
2728 0.1338
2729 0.1351
2730 0.1355
2731 0.1360
2732 0.1367
2733 0.1376
2734 0.1379
2735 0.1381
2736 0.1381
2737 0.1373
2738 0.1365
2739 0.1354
2740 0.1342
2741 0.1317
2742 0.1303
2743 0.1292
2744 0.1281
2745 0.1263
2746 0.1257
2747 0.1252
2748 0.1246
2749 0.1236
2750 0.1231
2751 0.1226
2752 0.1224
2753 0.1216
2754 0.1213
2755 0.1211
2756 0.1207
2757 0.1200
2758 0.1195
2759 0.1187
2760 0.1179
2761 0.1158
2762 0.1144
2763 0.1129
2764 0.1113
2765 0.1076
2766 0.1058
2767 0.1039
2768 0.1019
2769 0.0983
2770 0.0965
2771 0.0947
2772 0.0932
2773 0.0901
2774 0.0888
2775 0.0877
2776 0.0866
2777 0.0847
2778 0.0839
2779 0.0829
2780 0.0820
2781 0.0799
2782 0.0787
2783 0.0776
2784 0.0765
2785 0.0741
2786 0.0730
2787 0.0720
2788 0.0708
2789 0.0690
2790 0.0682
2791 0.0675
2792 0.0670
2793 0.0661
2794 0.0656
2795 0.0654
2796 0.0650
2797 0.0643
2798 0.0640
2799 0.0635
2800 0.0630
2801 0.0621
2802 0.0616
2803 0.0614
2804 0.0611
2805 0.0602
2806 0.0598
2807 0.0594
2808 0.0590
2809 0.0583
2810 0.0580
2811 0.0575
2812 0.0571
2813 0.0561
2814 0.0556
2815 0.0551
2816 0.0544
2817 0.0531
2818 0.0523
2819 0.0513
2820 0.0504
2821 0.0484
2822 0.0472
2823 0.0464
2824 0.0459
2825 0.0452
2826 0.0450
2827 0.0448
2828 0.0445
2829 0.0440
2830 0.0437
2831 0.0434
2832 0.0431
2833 0.0423
2834 0.0419
2835 0.0416
2836 0.0412
2837 0.0404
2838 0.0400
2839 0.0394
2840 0.0390
2841 0.0383
2842 0.0377
2843 0.0373
2844 0.0368
2845 0.0359
2846 0.0356
2847 0.0350
2848 0.0344
2849 0.0334
2850 0.0327
2851 0.0319
2852 0.0314
2853 0.0303
2854 0.0298
2855 0.0294
2856 0.0289
2857 0.0277
2858 0.0271
2859 0.0263
2860 0.0257
2861 0.0248
2862 0.0241
2863 0.0237
2864 0.0233
2865 0.0220
2866 0.0214
2867 0.0208
2868 0.0202
2869 0.0191
2870 0.0184
2871 0.0176
2872 0.0170
2873 0.0156
2874 0.0150
2875 0.0147
2876 0.0141
2877 0.0132
2878 0.0129
2879 0.0123
2880 0.0118
2881 0.0107
2882 0.0101
2883 0.0098
2884 0.0094
2885 0.0086
2886 0.0083
2887 0.0077
2888 0.0070
2889 0.0062
2890 0.0057
2891 0.0052
2892 0.0048
2893 0.0043
2894 0.0043
2895 0.0043
2896 0.0039
2897 0.0031
2898 0.0026
2899 0.0021
2900 0.0017
2901 0.0010
2902 0.0006
2903 0.0006
2904 0.0006
2905 0.0003
2906 0.0003
2907 0.0000
2908 -0.0002
2909 -0.0008
2910 -0.0012
2911 -0.0016
2912 -0.0018
2913 -0.0024
2914 -0.0024
2915 -0.0023
2916 -0.0027
2917 -0.0031
2918 -0.0034
2919 -0.0038
2920 -0.0038
2921 -0.0040
2922 -0.0044
2923 -0.0043
2924 -0.0043
2925 -0.0045
2926 -0.0044
2927 -0.0044
2928 -0.0046
2929 -0.0046
2930 -0.0048
2931 -0.0050
2932 -0.0052
2933 -0.0052
2934 -0.0050
2935 -0.0047
2936 -0.0044
2937 -0.0036
2938 -0.0036
2939 -0.0040
2940 -0.0041
2941 -0.0041
2942 -0.0045
2943 -0.0045
2944 -0.0049
2945 -0.0051
2946 -0.0047
2947 -0.0048
2948 -0.0050
2949 -0.0053
2950 -0.0053
2951 -0.0053
2952 -0.0052
2953 -0.0053
2954 -0.0051
2955 -0.0049
2956 -0.0055
2957 -0.0060
2958 -0.0061
2959 -0.0061
2960 -0.0058
2961 -0.0059
2962 -0.0059
2963 -0.0055
2964 -0.0055
2965 -0.0058
2966 -0.0053
2967 -0.0052
2968 -0.0057
2969 -0.0053
2970 -0.0053
2971 -0.0053
2972 -0.0052
2973 -0.0055
2974 -0.0050
2975 -0.0043
2976 -0.0044
2977 -0.0052
2978 -0.0057
2979 -0.0063
2980 -0.0065
2981 -0.0065
2982 -0.0065
2983 -0.0057
2984 -0.0052
2985 -0.0047
2986 -0.0046
2987 -0.0051
2988 -0.0052
2989 -0.0050
2990 -0.0051
2991 -0.0049
2992 -0.0045
2993 -0.0040
2994 -0.0036
2995 -0.0034
2996 -0.0039
2997 -0.0035
2998 -0.0036
2999 -0.0041
3000 -0.0042
3001 -0.0041
3002 -0.0042
3003 -0.0038
3004 -0.0036
3005 -0.0032
3006 -0.0026
3007 -0.0031
3008 -0.0040
3009 -0.0043
3010 -0.0046
3011 -0.0046
3012 -0.0045
3013 -0.0051
3014 -0.0051
3015 -0.0045
3016 -0.0048
3017 -0.0052
3018 -0.0055
3019 -0.0058
3020 -0.0056
3021 -0.0045
3022 -0.0046
3023 -0.0043
3024 -0.0042
3025 -0.0037
3026 -0.0031
3027 -0.0030
3028 -0.0025
3029 -0.0028
3030 -0.0039
3031 -0.0041
3032 -0.0038
3033 -0.0045
3034 -0.0047
3035 -0.0041
3036 -0.0042
3037 -0.0030
3038 -0.0022
3039 -0.0023
3040 -0.0024
3041 -0.0029
3042 -0.0035
3043 -0.0035
3044 -0.0043
3045 -0.0054
3046 -0.0045
3047 -0.0042
3048 -0.0035
3049 -0.0019
3050 -0.0020
3051 -0.0019
3052 -0.0017
3053 -0.0027
3054 -0.0025
3055 -0.0025
3056 -0.0033
3057 -0.0035
3058 -0.0041
3059 -0.0045
3060 -0.0036
3061 -0.0030
3062 -0.0030
3063 -0.0018
3064 -0.0007
3065 -0.0008
3066 -0.0004
3067 -0.0007
3068 -0.0011
3069 -0.0008
3070 -0.0010
3071 -0.0010
3072 -0.0009
3073 -0.0014
3074 -0.0016
3075 -0.0015
3076 -0.0020
3077 -0.0003
3078 0.0005
3079 0.0007
3080 0.0010
3081 0.0010
3082 0.0000
3083 0.0003
3084 0.0002
3085 0.0003
3086 0.0010
3087 0.0000
3088 -0.0016
3089 -0.0018
3090 -0.0031
3091 -0.0040
3092 -0.0044
3093 -0.0031
3094 -0.0017
3095 -0.0011
3096 -0.0017
3097 -0.0007
3098 -0.0011
3099 -0.0018
3100 -0.0010
3101 0.0008
3102 0.0008
3103 0.0011
3104 0.0003
3105 -0.0004
3106 0.0005
3107 0.0006
3108 0.0018
3109 0.0048
3110 0.0034
3111 0.0030
3112 0.0021
3113 -0.0022
3114 -0.0034
3115 -0.0037
3116 -0.0046
3117 -0.0028
3118 -0.0033
3119 -0.0046
3120 -0.0037
3121 -0.0024
3122 -0.0027
3123 -0.0014
3124 -0.0015
3125 0.0004
3126 0.0019
3127 0.0007
3128 -0.0013
3129 -0.0016
3130 -0.0018
3131 -0.0008
3132 0.0001
3133 0.0001
3134 0.0016
3135 0.0032
3136 0.0035
3137 0.0058
3138 0.0061
3139 0.0073
3140 0.0095
3141 0.0071
3142 0.0059
3143 0.0062
3144 0.0042
3145 0.0004
3146 0.0014
3147 0.0017
3148 0.0025
3149 0.0024
3150 0.0028
3151 0.0060
3152 0.0094
3153 0.0095
3154 0.0084
3155 0.0063
3156 0.0034
3157 0.0034
3158 0.0030
3159 0.0026
3160 0.0048
3161 0.0094
3162 0.0082
3163 0.0074
3164 0.0069
3165 0.0079
3166 0.0084
3167 0.0076
3168 0.0083
3169 0.0108
3170 0.0103
3171 0.0117
3172 0.0122
3173 0.0104
3174 0.0117
3175 0.0114
3176 0.0111
3177 0.0090
3178 0.0064
3179 0.0043
3180 0.0054
3181 0.0056
3182 0.0051
3183 0.0063
3184 0.0055
3185 0.0070
3186 0.0099
3187 0.0112
3188 0.0121
3189 0.0164
3190 0.0175
3191 0.0194
3192 0.0205
3193 0.0224
3194 0.0252
3195 0.0254
3196 0.0234
3197 0.0251
3198 0.0266
3199 0.0263
3200 0.0242
##END=
