##TITLE= SLglass
##JCAMP-DX= 4.24
##DATA TYPE= ULTRAVIOLET SPECTRUM
##SAMPLE DESCRIPTION= $$
$$         13:12:54    24/03/27
##SPECTROMETER/DATA SYSTEM= Perkin-Elmer Lambda Series / PECSS
##DATE= 24/03/27
##XUNITS= NANOMETERS
##YUNITS= TRANSMITTANCE
##MAXY= 0.9825
##MINY= -0.0092
##XFACTOR= 1.00
##YFACTOR= 1.0000
##FIRSTX= 200.0
##LASTX= 3200.0
##NPOINTS= 3001
##FIRSTY= 0.0691
##XYDATA= (XY..XY)
200 0.0691
201 0.0507
202 0.0431
203 0.0364
204 0.0306
205 0.0218
206 0.0186
207 0.0160
208 0.0140
209 0.0105
210 0.0091
211 0.0080
212 0.0071
213 0.0057
214 0.0050
215 0.0044
216 0.0039
217 0.0033
218 0.0030
219 0.0028
220 0.0025
221 0.0021
222 0.0018
223 0.0016
224 0.0015
225 0.0013
226 0.0013
227 0.0012
228 0.0011
229 0.0009
230 0.0008
231 0.0008
232 0.0008
233 0.0007
234 0.0006
235 0.0005
236 0.0005
237 0.0005
238 0.0004
239 0.0004
240 0.0004
241 0.0004
242 0.0003
243 0.0003
244 0.0003
245 0.0002
246 0.0002
247 0.0002
248 0.0002
249 0.0002
250 0.0003
251 0.0003
252 0.0002
253 0.0002
254 0.0002
255 0.0002
256 0.0002
257 0.0002
258 0.0002
259 0.0002
260 0.0002
261 0.0002
262 0.0002
263 0.0002
264 0.0002
265 0.0002
266 0.0002
267 0.0002
268 0.0002
269 0.0002
270 0.0002
271 0.0002
272 0.0002
273 0.0002
274 0.0002
275 0.0002
276 0.0001
277 0.0001
278 0.0001
279 0.0001
280 0.0001
281 0.0001
282 0.0001
283 0.0001
284 0.0001
285 0.0001
286 0.0001
287 0.0001
288 0.0001
289 0.0000
290 0.0000
291 0.0000
292 0.0000
293 0.0000
294 0.0000
295 -0.0000
296 0.0000
297 0.0000
298 0.0000
299 -0.0000
300 -0.0000
301 -0.0000
302 -0.0000
303 -0.0000
304 -0.0000
305 -0.0000
306 -0.0000
307 -0.0000
308 -0.0000
309 -0.0000
310 -0.0000
311 -0.0000
312 -0.0000
313 0.0000
314 0.0001
315 0.0001
316 0.0003
317 0.0007
318 0.0009
319 0.0009
320 0.0008
321 0.0008
322 0.0008
323 0.0007
324 0.0007
325 0.0007
326 0.0007
327 0.0006
328 0.0006
329 0.0006
330 0.0005
331 0.0005
332 0.0005
333 0.0004
334 0.0004
335 0.0004
336 0.0003
337 0.0003
338 0.0003
339 0.0003
340 0.0003
341 0.0003
342 0.0003
343 0.0003
344 0.0003
345 0.0003
346 0.0003
347 0.0003
348 0.0003
349 0.0002
350 0.0002
351 0.0002
352 0.0002
353 0.0001
354 0.0001
355 0.0001
356 0.0001
357 0.0000
358 0.0000
359 -0.0000
360 -0.0001
361 -0.0001
362 -0.0002
363 -0.0003
364 -0.0004
365 -0.0007
366 -0.0008
367 -0.0009
368 -0.0010
369 -0.0013
370 -0.0013
371 -0.0013
372 -0.0013
373 -0.0009
374 -0.0006
375 -0.0001
376 0.0004
377 0.0016
378 0.0024
379 0.0035
380 0.0052
381 0.0107
382 0.0151
383 0.0209
384 0.0282
385 0.0482
386 0.0608
387 0.0751
388 0.0909
389 0.1258
390 0.1443
391 0.1632
392 0.1821
393 0.2191
394 0.2368
395 0.2537
396 0.2699
397 0.2993
398 0.3126
399 0.3249
400 0.3365
401 0.3575
402 0.3666
403 0.3750
404 0.3828
405 0.3961
406 0.4018
407 0.4073
408 0.4123
409 0.4213
410 0.4255
411 0.4295
412 0.4335
413 0.4410
414 0.4448
415 0.4487
416 0.4527
417 0.4608
418 0.4652
419 0.4694
420 0.4734
421 0.4811
422 0.4847
423 0.4879
424 0.4910
425 0.4970
426 0.4997
427 0.5024
428 0.5051
429 0.5100
430 0.5125
431 0.5148
432 0.5172
433 0.5217
434 0.5241
435 0.5267
436 0.5295
437 0.5354
438 0.5386
439 0.5420
440 0.5454
441 0.5530
442 0.5569
443 0.5609
444 0.5651
445 0.5733
446 0.5772
447 0.5808
448 0.5842
449 0.5906
450 0.5934
451 0.5955
452 0.5973
453 0.6000
454 0.6007
455 0.6015
456 0.6020
457 0.6019
458 0.6016
459 0.6012
460 0.6003
461 0.5984
462 0.5973
463 0.5962
464 0.5954
465 0.5938
466 0.5934
467 0.5931
468 0.5929
469 0.5930
470 0.5934
471 0.5938
472 0.5945
473 0.5965
474 0.5975
475 0.5987
476 0.6000
477 0.6023
478 0.6035
479 0.6046
480 0.6054
481 0.6070
482 0.6076
483 0.6079
484 0.6081
485 0.6073
486 0.6067
487 0.6059
488 0.6046
489 0.6018
490 0.6003
491 0.5985
492 0.5966
493 0.5927
494 0.5907
495 0.5888
496 0.5868
497 0.5827
498 0.5810
499 0.5792
500 0.5775
501 0.5742
502 0.5726
503 0.5711
504 0.5697
505 0.5672
506 0.5662
507 0.5652
508 0.5640
509 0.5616
510 0.5604
511 0.5589
512 0.5575
513 0.5546
514 0.5529
515 0.5512
516 0.5494
517 0.5447
518 0.5422
519 0.5393
520 0.5360
521 0.5293
522 0.5258
523 0.5220
524 0.5182
525 0.5096
526 0.5051
527 0.5004
528 0.4955
529 0.4851
530 0.4798
531 0.4746
532 0.4692
533 0.4583
534 0.4526
535 0.4467
536 0.4409
537 0.4295
538 0.4238
539 0.4181
540 0.4122
541 0.4007
542 0.3947
543 0.3889
544 0.3831
545 0.3714
546 0.3655
547 0.3595
548 0.3536
549 0.3417
550 0.3358
551 0.3298
552 0.3238
553 0.3118
554 0.3057
555 0.2998
556 0.2938
557 0.2817
558 0.2758
559 0.2698
560 0.2639
561 0.2526
562 0.2470
563 0.2414
564 0.2359
565 0.2250
566 0.2197
567 0.2145
568 0.2094
569 0.1993
570 0.1944
571 0.1895
572 0.1847
573 0.1754
574 0.1710
575 0.1666
576 0.1623
577 0.1539
578 0.1498
579 0.1459
580 0.1420
581 0.1348
582 0.1314
583 0.1280
584 0.1248
585 0.1185
586 0.1154
587 0.1123
588 0.1092
589 0.1030
590 0.1000
591 0.0970
592 0.0941
593 0.0880
594 0.0851
595 0.0821
596 0.0793
597 0.0737
598 0.0709
599 0.0682
600 0.0656
601 0.0605
602 0.0581
603 0.0559
604 0.0539
605 0.0500
606 0.0484
607 0.0468
608 0.0453
609 0.0426
610 0.0414
611 0.0402
612 0.0390
613 0.0368
614 0.0358
615 0.0347
616 0.0337
617 0.0316
618 0.0306
619 0.0297
620 0.0287
621 0.0270
622 0.0262
623 0.0254
624 0.0247
625 0.0234
626 0.0228
627 0.0222
628 0.0216
629 0.0207
630 0.0202
631 0.0199
632 0.0195
633 0.0191
634 0.0189
635 0.0188
636 0.0187
637 0.0187
638 0.0187
639 0.0189
640 0.0190
641 0.0196
642 0.0200
643 0.0204
644 0.0209
645 0.0220
646 0.0226
647 0.0233
648 0.0240
649 0.0255
650 0.0263
651 0.0271
652 0.0278
653 0.0291
654 0.0296
655 0.0300
656 0.0304
657 0.0307
658 0.0306
659 0.0304
660 0.0300
661 0.0287
662 0.0278
663 0.0269
664 0.0259
665 0.0239
666 0.0229
667 0.0221
668 0.0214
669 0.0203
670 0.0200
671 0.0199
672 0.0198
673 0.0198
674 0.0199
675 0.0201
676 0.0203
677 0.0210
678 0.0215
679 0.0221
680 0.0230
681 0.0255
682 0.0272
683 0.0294
684 0.0320
685 0.0389
686 0.0433
687 0.0484
688 0.0543
689 0.0682
690 0.0758
691 0.0841
692 0.0929
693 0.1115
694 0.1210
695 0.1304
696 0.1396
697 0.1569
698 0.1651
699 0.1729
700 0.1805
701 0.1956
702 0.2033
703 0.2114
704 0.2199
705 0.2389
706 0.2496
707 0.2612
708 0.2738
709 0.3013
710 0.3163
711 0.3320
712 0.3481
713 0.3815
714 0.3983
715 0.4152
716 0.4322
717 0.4656
718 0.4819
719 0.4978
720 0.5131
721 0.5418
722 0.5554
723 0.5685
724 0.5810
725 0.6042
726 0.6145
727 0.6243
728 0.6337
729 0.6512
730 0.6592
731 0.6667
732 0.6741
733 0.6872
734 0.6933
735 0.6995
736 0.7056
737 0.7166
738 0.7217
739 0.7266
740 0.7317
741 0.7417
742 0.7464
743 0.7507
744 0.7547
745 0.7624
746 0.7662
747 0.7696
748 0.7734
749 0.7808
750 0.7845
751 0.7878
752 0.7909
753 0.7976
754 0.8008
755 0.8038
756 0.8066
757 0.8125
758 0.8155
759 0.8184
760 0.8217
761 0.8271
762 0.8295
763 0.8322
764 0.8348
765 0.8399
766 0.8423
767 0.8446
768 0.8473
769 0.8532
770 0.8560
771 0.8576
772 0.8592
773 0.8637
774 0.8660
775 0.8680
776 0.8699
777 0.8734
778 0.8748
779 0.8768
780 0.8792
781 0.8832
782 0.8854
783 0.8878
784 0.8903
785 0.8933
786 0.8935
787 0.8934
788 0.8942
789 0.8965
790 0.8975
791 0.8984
792 0.8997
793 0.9016
794 0.9023
795 0.9028
796 0.9034
797 0.9057
798 0.9068
799 0.9074
800 0.9072
801 0.9080
802 0.9085
803 0.9091
804 0.9092
805 0.9096
806 0.9104
807 0.9109
808 0.9112
809 0.9115
810 0.9119
811 0.9124
812 0.9128
813 0.9128
814 0.9120
815 0.9108
816 0.9100
817 0.9087
818 0.9081
819 0.9080
820 0.9082
821 0.9092
822 0.9085
823 0.9080
824 0.9075
825 0.9080
826 0.9081
827 0.9069
828 0.9062
829 0.9049
830 0.9045
831 0.9038
832 0.9035
833 0.9024
834 0.9017
835 0.9012
836 0.9014
837 0.9008
838 0.8998
839 0.8988
840 0.8984
841 0.9007
842 0.9018
843 0.9019
844 0.9015
845 0.9024
846 0.9027
847 0.9024
848 0.9022
849 0.9020
850 0.9030
851 0.9044
852 0.9048
853 0.9070
854 0.9087
855 0.9096
856 0.9116
857 0.9170
858 0.9199
859 0.9247
860 0.9308
861 0.9312
862 0.9315
863 0.9318
864 0.9322
865 0.9327
866 0.9332
867 0.9338
868 0.9344
869 0.9361
870 0.9370
871 0.9382
872 0.9392
873 0.9411
874 0.9423
875 0.9434
876 0.9446
877 0.9476
878 0.9488
879 0.9499
880 0.9510
881 0.9527
882 0.9539
883 0.9551
884 0.9563
885 0.9584
886 0.9590
887 0.9598
888 0.9605
889 0.9617
890 0.9621
891 0.9627
892 0.9631
893 0.9637
894 0.9644
895 0.9650
896 0.9653
897 0.9657
898 0.9658
899 0.9659
900 0.9661
901 0.9664
902 0.9667
903 0.9672
904 0.9674
905 0.9678
906 0.9677
907 0.9677
908 0.9680
909 0.9688
910 0.9694
911 0.9701
912 0.9707
913 0.9718
914 0.9724
915 0.9728
916 0.9731
917 0.9738
918 0.9739
919 0.9744
920 0.9747
921 0.9747
922 0.9747
923 0.9748
924 0.9745
925 0.9738
926 0.9736
927 0.9730
928 0.9728
929 0.9720
930 0.9713
931 0.9712
932 0.9707
933 0.9694
934 0.9689
935 0.9684
936 0.9680
937 0.9672
938 0.9663
939 0.9654
940 0.9649
941 0.9635
942 0.9628
943 0.9624
944 0.9620
945 0.9613
946 0.9605
947 0.9597
948 0.9592
949 0.9581
950 0.9574
951 0.9567
952 0.9560
953 0.9545
954 0.9541
955 0.9536
956 0.9528
957 0.9519
958 0.9512
959 0.9506
960 0.9503
961 0.9491
962 0.9487
963 0.9484
964 0.9480
965 0.9478
966 0.9471
967 0.9466
968 0.9463
969 0.9455
970 0.9452
971 0.9452
972 0.9450
973 0.9446
974 0.9442
975 0.9440
976 0.9439
977 0.9436
978 0.9430
979 0.9426
980 0.9428
981 0.9423
982 0.9425
983 0.9428
984 0.9424
985 0.9428
986 0.9426
987 0.9425
988 0.9427
989 0.9428
990 0.9430
991 0.9434
992 0.9435
993 0.9439
994 0.9441
995 0.9443
996 0.9445
997 0.9453
998 0.9455
999 0.9460
1000 0.9465
1001 0.9470
1002 0.9475
1003 0.9479
1004 0.9483
1005 0.9494
1006 0.9497
1007 0.9499
1008 0.9504
1009 0.9512
1010 0.9519
1011 0.9525
1012 0.9532
1013 0.9544
1014 0.9552
1015 0.9559
1016 0.9565
1017 0.9578
1018 0.9583
1019 0.9591
1020 0.9602
1021 0.9617
1022 0.9626
1023 0.9633
1024 0.9638
1025 0.9650
1026 0.9656
1027 0.9663
1028 0.9672
1029 0.9685
1030 0.9692
1031 0.9703
1032 0.9709
1033 0.9721
1034 0.9725
1035 0.9729
1036 0.9735
1037 0.9748
1038 0.9753
1039 0.9757
1040 0.9762
1041 0.9769
1042 0.9774
1043 0.9778
1044 0.9782
1045 0.9791
1046 0.9794
1047 0.9797
1048 0.9801
1049 0.9806
1050 0.9808
1051 0.9811
1052 0.9812
1053 0.9815
1054 0.9818
1055 0.9819
1056 0.9819
1057 0.9824
1058 0.9823
1059 0.9823
1060 0.9825
1061 0.9823
1062 0.9825
1063 0.9825
1064 0.9822
1065 0.9823
1066 0.9819
1067 0.9816
1068 0.9818
1069 0.9815
1070 0.9812
1071 0.9815
1072 0.9813
1073 0.9809
1074 0.9807
1075 0.9802
1076 0.9799
1077 0.9796
1078 0.9790
1079 0.9789
1080 0.9789
1081 0.9778
1082 0.9776
1083 0.9772
1084 0.9764
1085 0.9756
1086 0.9750
1087 0.9744
1088 0.9740
1089 0.9727
1090 0.9719
1091 0.9713
1092 0.9706
1093 0.9689
1094 0.9682
1095 0.9672
1096 0.9662
1097 0.9644
1098 0.9630
1099 0.9620
1100 0.9610
1101 0.9582
1102 0.9570
1103 0.9556
1104 0.9539
1105 0.9511
1106 0.9491
1107 0.9471
1108 0.9453
1109 0.9405
1110 0.9380
1111 0.9357
1112 0.9329
1113 0.9271
1114 0.9241
1115 0.9206
1116 0.9170
1117 0.9088
1118 0.9041
1119 0.8996
1120 0.8950
1121 0.8849
1122 0.8797
1123 0.8740
1124 0.8680
1125 0.8559
1126 0.8491
1127 0.8426
1128 0.8365
1129 0.8251
1130 0.8206
1131 0.8175
1132 0.8152
1133 0.8143
1134 0.8157
1135 0.8177
1136 0.8208
1137 0.8290
1138 0.8335
1139 0.8386
1140 0.8435
1141 0.8521
1142 0.8561
1143 0.8598
1144 0.8631
1145 0.8704
1146 0.8739
1147 0.8774
1148 0.8811
1149 0.8877
1150 0.8907
1151 0.8939
1152 0.8965
1153 0.9008
1154 0.9023
1155 0.9031
1156 0.9035
1157 0.9035
1158 0.9028
1159 0.9023
1160 0.9017
1161 0.8999
1162 0.8992
1163 0.8985
1164 0.8976
1165 0.8962
1166 0.8951
1167 0.8941
1168 0.8931
1169 0.8903
1170 0.8888
1171 0.8874
1172 0.8856
1173 0.8821
1174 0.8805
1175 0.8787
1176 0.8770
1177 0.8730
1178 0.8704
1179 0.8681
1180 0.8655
1181 0.8598
1182 0.8576
1183 0.8556
1184 0.8541
1185 0.8541
1186 0.8555
1187 0.8583
1188 0.8623
1189 0.8727
1190 0.8784
1191 0.8847
1192 0.8917
1193 0.9046
1194 0.9105
1195 0.9160
1196 0.9205
1197 0.9282
1198 0.9311
1199 0.9333
1200 0.9356
1201 0.9392
1202 0.9406
1203 0.9422
1204 0.9433
1205 0.9454
1206 0.9468
1207 0.9478
1208 0.9489
1209 0.9514
1210 0.9522
1211 0.9533
1212 0.9544
1213 0.9558
1214 0.9566
1215 0.9571
1216 0.9575
1217 0.9589
1218 0.9594
1219 0.9598
1220 0.9605
1221 0.9617
1222 0.9621
1223 0.9629
1224 0.9634
1225 0.9642
1226 0.9649
1227 0.9652
1228 0.9655
1229 0.9664
1230 0.9666
1231 0.9672
1232 0.9680
1233 0.9688
1234 0.9696
1235 0.9702
1236 0.9704
1237 0.9718
1238 0.9723
1239 0.9725
1240 0.9731
1241 0.9737
1242 0.9740
1243 0.9746
1244 0.9749
1245 0.9753
1246 0.9758
1247 0.9758
1248 0.9757
1249 0.9762
1250 0.9763
1251 0.9767
1252 0.9773
1253 0.9776
1254 0.9781
1255 0.9784
1256 0.9783
1257 0.9786
1258 0.9786
1259 0.9783
1260 0.9785
1261 0.9786
1262 0.9785
1263 0.9789
1264 0.9790
1265 0.9793
1266 0.9795
1267 0.9794
1268 0.9794
1269 0.9796
1270 0.9795
1271 0.9795
1272 0.9794
1273 0.9789
1274 0.9791
1275 0.9794
1276 0.9792
1277 0.9793
1278 0.9790
1279 0.9785
1280 0.9783
1281 0.9773
1282 0.9767
1283 0.9765
1284 0.9760
1285 0.9748
1286 0.9745
1287 0.9741
1288 0.9736
1289 0.9734
1290 0.9732
1291 0.9731
1292 0.9731
1293 0.9723
1294 0.9724
1295 0.9721
1296 0.9718
1297 0.9719
1298 0.9716
1299 0.9712
1300 0.9711
1301 0.9699
1302 0.9692
1303 0.9688
1304 0.9682
1305 0.9671
1306 0.9668
1307 0.9662
1308 0.9656
1309 0.9648
1310 0.9640
1311 0.9632
1312 0.9626
1313 0.9609
1314 0.9605
1315 0.9600
1316 0.9591
1317 0.9580
1318 0.9575
1319 0.9569
1320 0.9566
1321 0.9553
1322 0.9548
1323 0.9543
1324 0.9535
1325 0.9522
1326 0.9516
1327 0.9508
1328 0.9502
1329 0.9494
1330 0.9488
1331 0.9484
1332 0.9481
1333 0.9468
1334 0.9463
1335 0.9456
1336 0.9446
1337 0.9433
1338 0.9421
1339 0.9408
1340 0.9398
1341 0.9366
1342 0.9348
1343 0.9329
1344 0.9306
1345 0.9259
1346 0.9234
1347 0.9206
1348 0.9179
1349 0.9124
1350 0.9092
1351 0.9061
1352 0.9032
1353 0.8972
1354 0.8947
1355 0.8924
1356 0.8904
1357 0.8876
1358 0.8862
1359 0.8847
1360 0.8833
1361 0.8798
1362 0.8780
1363 0.8764
1364 0.8744
1365 0.8712
1366 0.8694
1367 0.8671
1368 0.8647
1369 0.8604
1370 0.8588
1371 0.8578
1372 0.8572
1373 0.8556
1374 0.8553
1375 0.8550
1376 0.8548
1377 0.8557
1378 0.8563
1379 0.8566
1380 0.8574
1381 0.8578
1382 0.8579
1383 0.8578
1384 0.8573
1385 0.8557
1386 0.8549
1387 0.8541
1388 0.8535
1389 0.8535
1390 0.8539
1391 0.8548
1392 0.8560
1393 0.8583
1394 0.8600
1395 0.8616
1396 0.8632
1397 0.8664
1398 0.8675
1399 0.8683
1400 0.8694
1401 0.8700
1402 0.8705
1403 0.8711
1404 0.8715
1405 0.8726
1406 0.8736
1407 0.8748
1408 0.8764
1409 0.8800
1410 0.8817
1411 0.8835
1412 0.8855
1413 0.8883
1414 0.8895
1415 0.8904
1416 0.8909
1417 0.8917
1418 0.8916
1419 0.8913
1420 0.8913
1421 0.8907
1422 0.8905
1423 0.8905
1424 0.8902
1425 0.8901
1426 0.8901
1427 0.8902
1428 0.8906
1429 0.8911
1430 0.8911
1431 0.8918
1432 0.8924
1433 0.8934
1434 0.8942
1435 0.8949
1436 0.8955
1437 0.8973
1438 0.8979
1439 0.8984
1440 0.8992
1441 0.8999
1442 0.9005
1443 0.9011
1444 0.9013
1445 0.9018
1446 0.9022
1447 0.9022
1448 0.9023
1449 0.9023
1450 0.9023
1451 0.9026
1452 0.9031
1453 0.9037
1454 0.9041
1455 0.9042
1456 0.9042
1457 0.9049
1458 0.9051
1459 0.9055
1460 0.9061
1461 0.9065
1462 0.9072
1463 0.9075
1464 0.9077
1465 0.9081
1466 0.9084
1467 0.9087
1468 0.9091
1469 0.9099
1470 0.9101
1471 0.9105
1472 0.9111
1473 0.9123
1474 0.9133
1475 0.9138
1476 0.9141
1477 0.9158
1478 0.9165
1479 0.9172
1480 0.9182
1481 0.9196
1482 0.9205
1483 0.9213
1484 0.9218
1485 0.9227
1486 0.9232
1487 0.9236
1488 0.9242
1489 0.9255
1490 0.9260
1491 0.9266
1492 0.9271
1493 0.9286
1494 0.9295
1495 0.9303
1496 0.9308
1497 0.9323
1498 0.9327
1499 0.9334
1500 0.9342
1501 0.9350
1502 0.9355
1503 0.9361
1504 0.9364
1505 0.9370
1506 0.9373
1507 0.9376
1508 0.9381
1509 0.9390
1510 0.9396
1511 0.9404
1512 0.9409
1513 0.9413
1514 0.9416
1515 0.9417
1516 0.9418
1517 0.9427
1518 0.9428
1519 0.9432
1520 0.9437
1521 0.9442
1522 0.9447
1523 0.9453
1524 0.9453
1525 0.9458
1526 0.9460
1527 0.9460
1528 0.9462
1529 0.9464
1530 0.9466
1531 0.9468
1532 0.9469
1533 0.9467
1534 0.9468
1535 0.9467
1536 0.9468
1537 0.9471
1538 0.9468
1539 0.9468
1540 0.9471
1541 0.9469
1542 0.9470
1543 0.9468
1544 0.9468
1545 0.9469
1546 0.9468
1547 0.9467
1548 0.9468
1549 0.9468
1550 0.9468
1551 0.9468
1552 0.9466
1553 0.9459
1554 0.9459
1555 0.9458
1556 0.9458
1557 0.9456
1558 0.9454
1559 0.9454
1560 0.9456
1561 0.9454
1562 0.9454
1563 0.9453
1564 0.9446
1565 0.9439
1566 0.9435
1567 0.9430
1568 0.9427
1569 0.9417
1570 0.9417
1571 0.9414
1572 0.9409
1573 0.9398
1574 0.9391
1575 0.9383
1576 0.9375
1577 0.9365
1578 0.9357
1579 0.9349
1580 0.9344
1581 0.9329
1582 0.9323
1583 0.9319
1584 0.9312
1585 0.9297
1586 0.9286
1587 0.9275
1588 0.9266
1589 0.9239
1590 0.9226
1591 0.9213
1592 0.9198
1593 0.9167
1594 0.9153
1595 0.9140
1596 0.9127
1597 0.9090
1598 0.9063
1599 0.9042
1600 0.9020
1601 0.8974
1602 0.8951
1603 0.8927
1604 0.8903
1605 0.8850
1606 0.8812
1607 0.8772
1608 0.8732
1609 0.8634
1610 0.8580
1611 0.8525
1612 0.8465
1613 0.8336
1614 0.8273
1615 0.8211
1616 0.8155
1617 0.8058
1618 0.8019
1619 0.7985
1620 0.7954
1621 0.7885
1622 0.7848
1623 0.7805
1624 0.7753
1625 0.7618
1626 0.7539
1627 0.7452
1628 0.7364
1629 0.7190
1630 0.7107
1631 0.7028
1632 0.6948
1633 0.6783
1634 0.6691
1635 0.6587
1636 0.6472
1637 0.6199
1638 0.6040
1639 0.5873
1640 0.5702
1641 0.5360
1642 0.5201
1643 0.5052
1644 0.4917
1645 0.4691
1646 0.4595
1647 0.4503
1648 0.4409
1649 0.4191
1650 0.4061
1651 0.3914
1652 0.3748
1653 0.3372
1654 0.3170
1655 0.2964
1656 0.2759
1657 0.2359
1658 0.2168
1659 0.1989
1660 0.1822
1661 0.1539
1662 0.1433
1663 0.1353
1664 0.1304
1665 0.1308
1666 0.1364
1667 0.1455
1668 0.1581
1669 0.1911
1670 0.2082
1671 0.2263
1672 0.2442
1673 0.2767
1674 0.2897
1675 0.2998
1676 0.3070
1677 0.3124
1678 0.3113
1679 0.3085
1680 0.3044
1681 0.2951
1682 0.2913
1683 0.2885
1684 0.2874
1685 0.2908
1686 0.2948
1687 0.3004
1688 0.3070
1689 0.3209
1690 0.3275
1691 0.3331
1692 0.3379
1693 0.3465
1694 0.3514
1695 0.3576
1696 0.3660
1697 0.3893
1698 0.4040
1699 0.4204
1700 0.4374
1701 0.4719
1702 0.4885
1703 0.5039
1704 0.5184
1705 0.5436
1706 0.5540
1707 0.5630
1708 0.5704
1709 0.5799
1710 0.5828
1711 0.5845
1712 0.5851
1713 0.5853
1714 0.5851
1715 0.5852
1716 0.5860
1717 0.5882
1718 0.5898
1719 0.5915
1720 0.5926
1721 0.5926
1722 0.5910
1723 0.5881
1724 0.5840
1725 0.5728
1726 0.5661
1727 0.5594
1728 0.5532
1729 0.5425
1730 0.5392
1731 0.5373
1732 0.5369
1733 0.5421
1734 0.5470
1735 0.5536
1736 0.5620
1737 0.5823
1738 0.5941
1739 0.6064
1740 0.6185
1741 0.6426
1742 0.6539
1743 0.6646
1744 0.6747
1745 0.6928
1746 0.7007
1747 0.7081
1748 0.7145
1749 0.7240
1750 0.7273
1751 0.7292
1752 0.7296
1753 0.7273
1754 0.7243
1755 0.7206
1756 0.7167
1757 0.7068
1758 0.7018
1759 0.6970
1760 0.6921
1761 0.6850
1762 0.6826
1763 0.6813
1764 0.6815
1765 0.6854
1766 0.6890
1767 0.6938
1768 0.6993
1769 0.7119
1770 0.7190
1771 0.7262
1772 0.7335
1773 0.7483
1774 0.7550
1775 0.7612
1776 0.7673
1777 0.7770
1778 0.7809
1779 0.7840
1780 0.7861
1781 0.7884
1782 0.7888
1783 0.7888
1784 0.7889
1785 0.7879
1786 0.7872
1787 0.7866
1788 0.7859
1789 0.7840
1790 0.7833
1791 0.7823
1792 0.7814
1793 0.7804
1794 0.7797
1795 0.7792
1796 0.7789
1797 0.7778
1798 0.7776
1799 0.7774
1800 0.7770
1801 0.7768
1802 0.7767
1803 0.7765
1804 0.7765
1805 0.7768
1806 0.7770
1807 0.7774
1808 0.7776
1809 0.7777
1810 0.7778
1811 0.7777
1812 0.7775
1813 0.7773
1814 0.7765
1815 0.7759
1816 0.7754
1817 0.7733
1818 0.7721
1819 0.7705
1820 0.7687
1821 0.7658
1822 0.7645
1823 0.7635
1824 0.7629
1825 0.7626
1826 0.7630
1827 0.7638
1828 0.7650
1829 0.7680
1830 0.7701
1831 0.7720
1832 0.7738
1833 0.7781
1834 0.7799
1835 0.7816
1836 0.7833
1837 0.7854
1838 0.7864
1839 0.7871
1840 0.7874
1841 0.7885
1842 0.7884
1843 0.7880
1844 0.7878
1845 0.7869
1846 0.7864
1847 0.7860
1848 0.7857
1849 0.7853
1850 0.7857
1851 0.7861
1852 0.7867
1853 0.7887
1854 0.7895
1855 0.7904
1856 0.7915
1857 0.7925
1858 0.7929
1859 0.7929
1860 0.7926
1861 0.7918
1862 0.7913
1863 0.7905
1864 0.7898
1865 0.7882
1866 0.7876
1867 0.7873
1868 0.7870
1869 0.7865
1870 0.7865
1871 0.7864
1872 0.7864
1873 0.7864
1874 0.7863
1875 0.7866
1876 0.7867
1877 0.7862
1878 0.7860
1879 0.7856
1880 0.7849
1881 0.7833
1882 0.7818
1883 0.7797
1884 0.7776
1885 0.7728
1886 0.7700
1887 0.7671
1888 0.7637
1889 0.7555
1890 0.7512
1891 0.7467
1892 0.7423
1893 0.7351
1894 0.7321
1895 0.7302
1896 0.7291
1897 0.7287
1898 0.7303
1899 0.7328
1900 0.7360
1901 0.7448
1902 0.7499
1903 0.7550
1904 0.7604
1905 0.7710
1906 0.7759
1907 0.7806
1908 0.7849
1909 0.7922
1910 0.7954
1911 0.7981
1912 0.8006
1913 0.8050
1914 0.8064
1915 0.8081
1916 0.8096
1917 0.8103
1918 0.8107
1919 0.8109
1920 0.8106
1921 0.8100
1922 0.8096
1923 0.8091
1924 0.8087
1925 0.8082
1926 0.8079
1927 0.8079
1928 0.8078
1929 0.8075
1930 0.8077
1931 0.8078
1932 0.8081
1933 0.8089
1934 0.8093
1935 0.8102
1936 0.8112
1937 0.8129
1938 0.8136
1939 0.8145
1940 0.8157
1941 0.8180
1942 0.8191
1943 0.8201
1944 0.8209
1945 0.8217
1946 0.8220
1947 0.8226
1948 0.8231
1949 0.8241
1950 0.8243
1951 0.8241
1952 0.8241
1953 0.8241
1954 0.8240
1955 0.8239
1956 0.8235
1957 0.8224
1958 0.8218
1959 0.8213
1960 0.8206
1961 0.8190
1962 0.8183
1963 0.8174
1964 0.8167
1965 0.8156
1966 0.8151
1967 0.8149
1968 0.8147
1969 0.8145
1970 0.8147
1971 0.8147
1972 0.8148
1973 0.8150
1974 0.8150
1975 0.8153
1976 0.8156
1977 0.8158
1978 0.8161
1979 0.8163
1980 0.8163
1981 0.8162
1982 0.8157
1983 0.8149
1984 0.8141
1985 0.8124
1986 0.8113
1987 0.8102
1988 0.8093
1989 0.8073
1990 0.8064
1991 0.8053
1992 0.8043
1993 0.8027
1994 0.8016
1995 0.8007
1996 0.7998
1997 0.7976
1998 0.7965
1999 0.7953
2000 0.7942
2001 0.7922
2002 0.7909
2003 0.7895
2004 0.7885
2005 0.7866
2006 0.7856
2007 0.7847
2008 0.7839
2009 0.7825
2010 0.7818
2011 0.7811
2012 0.7811
2013 0.7805
2014 0.7798
2015 0.7794
2016 0.7790
2017 0.7785
2018 0.7780
2019 0.7773
2020 0.7764
2021 0.7747
2022 0.7738
2023 0.7726
2024 0.7709
2025 0.7668
2026 0.7643
2027 0.7616
2028 0.7584
2029 0.7515
2030 0.7478
2031 0.7436
2032 0.7394
2033 0.7305
2034 0.7258
2035 0.7217
2036 0.7178
2037 0.7102
2038 0.7069
2039 0.7037
2040 0.7011
2041 0.6969
2042 0.6950
2043 0.6937
2044 0.6929
2045 0.6906
2046 0.6895
2047 0.6884
2048 0.6871
2049 0.6829
2050 0.6804
2051 0.6772
2052 0.6734
2053 0.6654
2054 0.6611
2055 0.6568
2056 0.6526
2057 0.6452
2058 0.6423
2059 0.6398
2060 0.6379
2061 0.6364
2062 0.6361
2063 0.6364
2064 0.6375
2065 0.6404
2066 0.6422
2067 0.6441
2068 0.6459
2069 0.6496
2070 0.6514
2071 0.6531
2072 0.6548
2073 0.6574
2074 0.6584
2075 0.6592
2076 0.6598
2077 0.6604
2078 0.6603
2079 0.6598
2080 0.6588
2081 0.6561
2082 0.6540
2083 0.6517
2084 0.6491
2085 0.6431
2086 0.6396
2087 0.6360
2088 0.6322
2089 0.6239
2090 0.6198
2091 0.6152
2092 0.6104
2093 0.6001
2094 0.5947
2095 0.5894
2096 0.5839
2097 0.5720
2098 0.5658
2099 0.5591
2100 0.5521
2101 0.5371
2102 0.5287
2103 0.5198
2104 0.5103
2105 0.4897
2106 0.4784
2107 0.4666
2108 0.4540
2109 0.4271
2110 0.4127
2111 0.3979
2112 0.3828
2113 0.3515
2114 0.3353
2115 0.3188
2116 0.3022
2117 0.2681
2118 0.2508
2119 0.2336
2120 0.2163
2121 0.1831
2122 0.1674
2123 0.1527
2124 0.1394
2125 0.1163
2126 0.1066
2127 0.0982
2128 0.0910
2129 0.0799
2130 0.0759
2131 0.0728
2132 0.0707
2133 0.0698
2134 0.0707
2135 0.0725
2136 0.0753
2137 0.0828
2138 0.0873
2139 0.0922
2140 0.0971
2141 0.1059
2142 0.1094
2143 0.1120
2144 0.1138
2145 0.1138
2146 0.1122
2147 0.1095
2148 0.1060
2149 0.0969
2150 0.0920
2151 0.0872
2152 0.0829
2153 0.0769
2154 0.0756
2155 0.0759
2156 0.0779
2157 0.0873
2158 0.0950
2159 0.1048
2160 0.1166
2161 0.1456
2162 0.1620
2163 0.1791
2164 0.1963
2165 0.2292
2166 0.2440
2167 0.2573
2168 0.2686
2169 0.2850
2170 0.2902
2171 0.2932
2172 0.2942
2173 0.2911
2174 0.2872
2175 0.2824
2176 0.2769
2177 0.2645
2178 0.2587
2179 0.2532
2180 0.2484
2181 0.2426
2182 0.2417
2183 0.2425
2184 0.2450
2185 0.2552
2186 0.2628
2187 0.2722
2188 0.2829
2189 0.3072
2190 0.3202
2191 0.3333
2192 0.3460
2193 0.3690
2194 0.3788
2195 0.3874
2196 0.3946
2197 0.4049
2198 0.4083
2199 0.4107
2200 0.4123
2201 0.4136
2202 0.4137
2203 0.4137
2204 0.4136
2205 0.4136
2206 0.4136
2207 0.4136
2208 0.4135
2209 0.4130
2210 0.4125
2211 0.4116
2212 0.4105
2213 0.4070
2214 0.4044
2215 0.4013
2216 0.3977
2217 0.3884
2218 0.3830
2219 0.3771
2220 0.3707
2221 0.3571
2222 0.3498
2223 0.3424
2224 0.3351
2225 0.3208
2226 0.3142
2227 0.3082
2228 0.3027
2229 0.2937
2230 0.2899
2231 0.2867
2232 0.2841
2233 0.2797
2234 0.2777
2235 0.2757
2236 0.2737
2237 0.2687
2238 0.2656
2239 0.2621
2240 0.2581
2241 0.2482
2242 0.2422
2243 0.2354
2244 0.2283
2245 0.2126
2246 0.2042
2247 0.1955
2248 0.1865
2249 0.1681
2250 0.1590
2251 0.1499
2252 0.1412
2253 0.1239
2254 0.1156
2255 0.1077
2256 0.1003
2257 0.0863
2258 0.0799
2259 0.0739
2260 0.0684
2261 0.0589
2262 0.0549
2263 0.0513
2264 0.0483
2265 0.0436
2266 0.0420
2267 0.0410
2268 0.0404
2269 0.0399
2270 0.0402
2271 0.0407
2272 0.0414
2273 0.0433
2274 0.0441
2275 0.0448
2276 0.0454
2277 0.0459
2278 0.0458
2279 0.0455
2280 0.0449
2281 0.0430
2282 0.0417
2283 0.0402
2284 0.0387
2285 0.0355
2286 0.0340
2287 0.0326
2288 0.0310
2289 0.0280
2290 0.0267
2291 0.0255
2292 0.0243
2293 0.0223
2294 0.0214
2295 0.0206
2296 0.0200
2297 0.0189
2298 0.0185
2299 0.0180
2300 0.0174
2301 0.0168
2302 0.0164
2303 0.0159
2304 0.0156
2305 0.0148
2306 0.0145
2307 0.0144
2308 0.0142
2309 0.0143
2310 0.0146
2311 0.0148
2312 0.0152
2313 0.0161
2314 0.0165
2315 0.0170
2316 0.0175
2317 0.0182
2318 0.0187
2319 0.0192
2320 0.0196
2321 0.0207
2322 0.0211
2323 0.0215
2324 0.0221
2325 0.0229
2326 0.0234
2327 0.0240
2328 0.0245
2329 0.0259
2330 0.0267
2331 0.0273
2332 0.0280
2333 0.0295
2334 0.0304
2335 0.0315
2336 0.0326
2337 0.0344
2338 0.0355
2339 0.0365
2340 0.0376
2341 0.0397
2342 0.0406
2343 0.0416
2344 0.0427
2345 0.0449
2346 0.0460
2347 0.0471
2348 0.0481
2349 0.0497
2350 0.0504
2351 0.0509
2352 0.0512
2353 0.0517
2354 0.0517
2355 0.0516
2356 0.0516
2357 0.0508
2358 0.0504
2359 0.0499
2360 0.0493
2361 0.0478
2362 0.0469
2363 0.0459
2364 0.0452
2365 0.0436
2366 0.0429
2367 0.0423
2368 0.0415
2369 0.0402
2370 0.0397
2371 0.0391
2372 0.0385
2373 0.0372
2374 0.0365
2375 0.0358
2376 0.0353
2377 0.0344
2378 0.0340
2379 0.0336
2380 0.0332
2381 0.0324
2382 0.0319
2383 0.0316
2384 0.0312
2385 0.0303
2386 0.0299
2387 0.0296
2388 0.0292
2389 0.0289
2390 0.0288
2391 0.0286
2392 0.0286
2393 0.0285
2394 0.0286
2395 0.0290
2396 0.0296
2397 0.0311
2398 0.0321
2399 0.0331
2400 0.0342
2401 0.0367
2402 0.0381
2403 0.0396
2404 0.0413
2405 0.0446
2406 0.0463
2407 0.0480
2408 0.0496
2409 0.0524
2410 0.0537
2411 0.0549
2412 0.0559
2413 0.0573
2414 0.0579
2415 0.0586
2416 0.0590
2417 0.0590
2418 0.0586
2419 0.0579
2420 0.0568
2421 0.0541
2422 0.0523
2423 0.0504
2424 0.0483
2425 0.0436
2426 0.0412
2427 0.0389
2428 0.0365
2429 0.0316
2430 0.0290
2431 0.0265
2432 0.0241
2433 0.0193
2434 0.0170
2435 0.0148
2436 0.0127
2437 0.0086
2438 0.0068
2439 0.0051
2440 0.0037
2441 0.0012
2442 0.0000
2443 -0.0008
2444 -0.0014
2445 -0.0024
2446 -0.0027
2447 -0.0027
2448 -0.0029
2449 -0.0024
2450 -0.0021
2451 -0.0018
2452 -0.0013
2453 -0.0002
2454 0.0004
2455 0.0014
2456 0.0024
2457 0.0043
2458 0.0054
2459 0.0065
2460 0.0077
2461 0.0109
2462 0.0124
2463 0.0140
2464 0.0160
2465 0.0200
2466 0.0222
2467 0.0245
2468 0.0267
2469 0.0315
2470 0.0340
2471 0.0365
2472 0.0391
2473 0.0440
2474 0.0462
2475 0.0483
2476 0.0503
2477 0.0537
2478 0.0554
2479 0.0568
2480 0.0581
2481 0.0603
2482 0.0610
2483 0.0617
2484 0.0623
2485 0.0634
2486 0.0638
2487 0.0642
2488 0.0643
2489 0.0646
2490 0.0648
2491 0.0647
2492 0.0647
2493 0.0645
2494 0.0644
2495 0.0644
2496 0.0644
2497 0.0640
2498 0.0640
2499 0.0638
2500 0.0637
2501 0.0640
2502 0.0640
2503 0.0642
2504 0.0645
2505 0.0649
2506 0.0654
2507 0.0660
2508 0.0667
2509 0.0686
2510 0.0695
2511 0.0705
2512 0.0717
2513 0.0742
2514 0.0756
2515 0.0771
2516 0.0784
2517 0.0807
2518 0.0819
2519 0.0830
2520 0.0840
2521 0.0859
2522 0.0863
2523 0.0866
2524 0.0869
2525 0.0870
2526 0.0869
2527 0.0868
2528 0.0864
2529 0.0859
2530 0.0854
2531 0.0848
2532 0.0845
2533 0.0833
2534 0.0827
2535 0.0824
2536 0.0820
2537 0.0809
2538 0.0806
2539 0.0801
2540 0.0795
2541 0.0788
2542 0.0782
2543 0.0777
2544 0.0771
2545 0.0756
2546 0.0749
2547 0.0743
2548 0.0734
2549 0.0716
2550 0.0709
2551 0.0701
2552 0.0695
2553 0.0679
2554 0.0670
2555 0.0664
2556 0.0657
2557 0.0638
2558 0.0628
2559 0.0619
2560 0.0611
2561 0.0600
2562 0.0593
2563 0.0586
2564 0.0580
2565 0.0564
2566 0.0560
2567 0.0558
2568 0.0556
2569 0.0560
2570 0.0561
2571 0.0564
2572 0.0571
2573 0.0588
2574 0.0600
2575 0.0617
2576 0.0638
2577 0.0692
2578 0.0722
2579 0.0754
2580 0.0790
2581 0.0872
2582 0.0913
2583 0.0956
2584 0.1004
2585 0.1098
2586 0.1149
2587 0.1201
2588 0.1249
2589 0.1345
2590 0.1389
2591 0.1432
2592 0.1476
2593 0.1561
2594 0.1599
2595 0.1637
2596 0.1672
2597 0.1736
2598 0.1767
2599 0.1795
2600 0.1820
2601 0.1871
2602 0.1890
2603 0.1909
2604 0.1928
2605 0.1957
2606 0.1970
2607 0.1982
2608 0.1989
2609 0.2003
2610 0.2008
2611 0.2010
2612 0.2010
2613 0.2005
2614 0.2001
2615 0.1999
2616 0.1998
2617 0.1993
2618 0.1991
2619 0.1987
2620 0.1987
2621 0.2005
2622 0.2017
2623 0.2032
2624 0.2051
2625 0.2093
2626 0.2117
2627 0.2142
2628 0.2168
2629 0.2226
2630 0.2256
2631 0.2288
2632 0.2322
2633 0.2389
2634 0.2418
2635 0.2447
2636 0.2472
2637 0.2514
2638 0.2532
2639 0.2546
2640 0.2558
2641 0.2572
2642 0.2574
2643 0.2574
2644 0.2570
2645 0.2545
2646 0.2526
2647 0.2499
2648 0.2466
2649 0.2393
2650 0.2350
2651 0.2306
2652 0.2262
2653 0.2176
2654 0.2137
2655 0.2099
2656 0.2063
2657 0.1996
2658 0.1965
2659 0.1935
2660 0.1904
2661 0.1848
2662 0.1821
2663 0.1797
2664 0.1776
2665 0.1742
2666 0.1730
2667 0.1721
2668 0.1714
2669 0.1710
2670 0.1712
2671 0.1717
2672 0.1725
2673 0.1747
2674 0.1760
2675 0.1776
2676 0.1792
2677 0.1820
2678 0.1831
2679 0.1838
2680 0.1843
2681 0.1851
2682 0.1848
2683 0.1843
2684 0.1832
2685 0.1794
2686 0.1769
2687 0.1738
2688 0.1702
2689 0.1620
2690 0.1572
2691 0.1521
2692 0.1468
2693 0.1353
2694 0.1293
2695 0.1234
2696 0.1175
2697 0.1063
2698 0.1011
2699 0.0961
2700 0.0913
2701 0.0824
2702 0.0779
2703 0.0737
2704 0.0695
2705 0.0610
2706 0.0570
2707 0.0529
2708 0.0492
2709 0.0428
2710 0.0399
2711 0.0374
2712 0.0353
2713 0.0323
2714 0.0312
2715 0.0306
2716 0.0302
2717 0.0304
2718 0.0311
2719 0.0319
2720 0.0330
2721 0.0357
2722 0.0370
2723 0.0385
2724 0.0400
2725 0.0433
2726 0.0452
2727 0.0473
2728 0.0496
2729 0.0555
2730 0.0589
2731 0.0626
2732 0.0668
2733 0.0769
2734 0.0826
2735 0.0886
2736 0.0947
2737 0.1070
2738 0.1129
2739 0.1182
2740 0.1231
2741 0.1313
2742 0.1347
2743 0.1376
2744 0.1401
2745 0.1444
2746 0.1464
2747 0.1481
2748 0.1495
2749 0.1526
2750 0.1544
2751 0.1563
2752 0.1584
2753 0.1627
2754 0.1652
2755 0.1678
2756 0.1704
2757 0.1755
2758 0.1781
2759 0.1804
2760 0.1824
2761 0.1857
2762 0.1868
2763 0.1876
2764 0.1879
2765 0.1874
2766 0.1866
2767 0.1851
2768 0.1831
2769 0.1783
2770 0.1753
2771 0.1719
2772 0.1683
2773 0.1596
2774 0.1547
2775 0.1499
2776 0.1447
2777 0.1337
2778 0.1280
2779 0.1222
2780 0.1163
2781 0.1044
2782 0.0985
2783 0.0928
2784 0.0871
2785 0.0763
2786 0.0715
2787 0.0669
2788 0.0625
2789 0.0550
2790 0.0516
2791 0.0485
2792 0.0458
2793 0.0410
2794 0.0389
2795 0.0369
2796 0.0348
2797 0.0312
2798 0.0294
2799 0.0276
2800 0.0259
2801 0.0226
2802 0.0208
2803 0.0192
2804 0.0175
2805 0.0145
2806 0.0132
2807 0.0120
2808 0.0107
2809 0.0086
2810 0.0074
2811 0.0062
2812 0.0051
2813 0.0027
2814 0.0017
2815 0.0007
2816 -0.0004
2817 -0.0023
2818 -0.0030
2819 -0.0035
2820 -0.0037
2821 -0.0036
2822 -0.0036
2823 -0.0037
2824 -0.0037
2825 -0.0038
2826 -0.0038
2827 -0.0039
2828 -0.0039
2829 -0.0040
2830 -0.0040
2831 -0.0041
2832 -0.0041
2833 -0.0041
2834 -0.0041
2835 -0.0040
2836 -0.0039
2837 -0.0034
2838 -0.0029
2839 -0.0023
2840 -0.0013
2841 0.0009
2842 0.0023
2843 0.0039
2844 0.0056
2845 0.0094
2846 0.0118
2847 0.0141
2848 0.0163
2849 0.0213
2850 0.0239
2851 0.0267
2852 0.0294
2853 0.0345
2854 0.0374
2855 0.0402
2856 0.0429
2857 0.0481
2858 0.0505
2859 0.0527
2860 0.0550
2861 0.0595
2862 0.0615
2863 0.0637
2864 0.0658
2865 0.0698
2866 0.0719
2867 0.0737
2868 0.0755
2869 0.0794
2870 0.0810
2871 0.0827
2872 0.0844
2873 0.0875
2874 0.0892
2875 0.0908
2876 0.0923
2877 0.0959
2878 0.0979
2879 0.0999
2880 0.1021
2881 0.1061
2882 0.1080
2883 0.1102
2884 0.1123
2885 0.1165
2886 0.1190
2887 0.1214
2888 0.1237
2889 0.1287
2890 0.1309
2891 0.1333
2892 0.1357
2893 0.1404
2894 0.1429
2895 0.1454
2896 0.1478
2897 0.1528
2898 0.1551
2899 0.1573
2900 0.1596
2901 0.1643
2902 0.1666
2903 0.1690
2904 0.1712
2905 0.1750
2906 0.1769
2907 0.1782
2908 0.1796
2909 0.1829
2910 0.1844
2911 0.1862
2912 0.1881
2913 0.1910
2914 0.1927
2915 0.1942
2916 0.1954
2917 0.1981
2918 0.1990
2919 0.1998
2920 0.2006
2921 0.2012
2922 0.2011
2923 0.2014
2924 0.2014
2925 0.2013
2926 0.2014
2927 0.2009
2928 0.2000
2929 0.1989
2930 0.1978
2931 0.1972
2932 0.1966
2933 0.1936
2934 0.1922
2935 0.1908
2936 0.1889
2937 0.1853
2938 0.1832
2939 0.1809
2940 0.1788
2941 0.1747
2942 0.1725
2943 0.1708
2944 0.1686
2945 0.1638
2946 0.1615
2947 0.1588
2948 0.1559
2949 0.1514
2950 0.1490
2951 0.1469
2952 0.1452
2953 0.1415
2954 0.1401
2955 0.1386
2956 0.1369
2957 0.1335
2958 0.1318
2959 0.1302
2960 0.1292
2961 0.1269
2962 0.1260
2963 0.1255
2964 0.1249
2965 0.1248
2966 0.1251
2967 0.1246
2968 0.1240
2969 0.1240
2970 0.1238
2971 0.1239
2972 0.1240
2973 0.1240
2974 0.1248
2975 0.1254
2976 0.1256
2977 0.1253
2978 0.1247
2979 0.1244
2980 0.1248
2981 0.1254
2982 0.1255
2983 0.1258
2984 0.1256
2985 0.1253
2986 0.1250
2987 0.1243
2988 0.1237
2989 0.1234
2990 0.1225
2991 0.1218
2992 0.1209
2993 0.1184
2994 0.1177
2995 0.1166
2996 0.1147
2997 0.1125
2998 0.1106
2999 0.1085
3000 0.1069
3001 0.1034
3002 0.1018
3003 0.1003
3004 0.0982
3005 0.0940
3006 0.0922
3007 0.0895
3008 0.0876
3009 0.0847
3010 0.0824
3011 0.0802
3012 0.0781
3013 0.0730
3014 0.0719
3015 0.0703
3016 0.0686
3017 0.0652
3018 0.0629
3019 0.0608
3020 0.0594
3021 0.0558
3022 0.0540
3023 0.0529
3024 0.0507
3025 0.0466
3026 0.0455
3027 0.0437
3028 0.0423
3029 0.0410
3030 0.0398
3031 0.0387
3032 0.0373
3033 0.0345
3034 0.0345
3035 0.0345
3036 0.0342
3037 0.0337
3038 0.0328
3039 0.0316
3040 0.0308
3041 0.0291
3042 0.0283
3043 0.0276
3044 0.0260
3045 0.0250
3046 0.0252
3047 0.0243
3048 0.0235
3049 0.0230
3050 0.0225
3051 0.0226
3052 0.0227
3053 0.0221
3054 0.0222
3055 0.0210
3056 0.0197
3057 0.0182
3058 0.0175
3059 0.0173
3060 0.0178
3061 0.0179
3062 0.0178
3063 0.0181
3064 0.0169
3065 0.0160
3066 0.0164
3067 0.0155
3068 0.0145
3069 0.0124
3070 0.0109
3071 0.0112
3072 0.0116
3073 0.0102
3074 0.0106
3075 0.0104
3076 0.0096
3077 0.0097
3078 0.0090
3079 0.0084
3080 0.0080
3081 0.0057
3082 0.0059
3083 0.0072
3084 0.0080
3085 0.0085
3086 0.0085
3087 0.0072
3088 0.0074
3089 0.0075
3090 0.0068
3091 0.0076
3092 0.0079
3093 0.0060
3094 0.0062
3095 0.0047
3096 0.0038
3097 0.0041
3098 0.0034
3099 0.0034
3100 0.0049
3101 0.0060
3102 0.0055
3103 0.0058
3104 0.0048
3105 0.0036
3106 0.0035
3107 0.0026
3108 0.0025
3109 0.0015
3110 -0.0007
3111 -0.0008
3112 -0.0014
3113 -0.0032
3114 -0.0030
3115 -0.0042
3116 -0.0049
3117 -0.0021
3118 -0.0026
3119 -0.0029
3120 -0.0028
3121 -0.0041
3122 -0.0050
3123 -0.0035
3124 -0.0028
3125 -0.0023
3126 -0.0011
3127 -0.0023
3128 -0.0024
3129 -0.0021
3130 -0.0036
3131 -0.0045
3132 -0.0062
3133 -0.0077
3134 -0.0059
3135 -0.0073
3136 -0.0092
3137 -0.0074
3138 -0.0080
3139 -0.0074
3140 -0.0052
3141 -0.0046
3142 -0.0040
3143 -0.0030
3144 -0.0027
3145 -0.0012
3146 0.0000
3147 -0.0008
3148 -0.0021
3149 -0.0017
3150 -0.0031
3151 -0.0027
3152 -0.0032
3153 -0.0060
3154 -0.0066
3155 -0.0074
3156 -0.0080
3157 -0.0035
3158 -0.0038
3159 -0.0039
3160 -0.0037
3161 -0.0066
3162 -0.0064
3163 -0.0042
3164 -0.0039
3165 -0.0008
3166 0.0006
3167 -0.0001
3168 -0.0010
3169 -0.0032
3170 -0.0055
3171 -0.0050
3172 -0.0046
3173 -0.0054
3174 -0.0040
3175 -0.0062
3176 -0.0085
3177 -0.0071
3178 -0.0055
3179 -0.0027
3180 -0.0003
3181 -0.0025
3182 -0.0031
3183 -0.0020
3184 -0.0017
3185 0.0011
3186 0.0022
3187 0.0001
3188 -0.0014
3189 -0.0036
3190 -0.0053
3191 -0.0041
3192 -0.0018
3193 0.0019
3194 0.0062
3195 0.0073
3196 0.0068
3197 0.0083
3198 0.0067
3199 0.0050
3200 0.0053
##END=
