##TITLE= smicrosc
##JCAMP-DX= 4.24
##DATA TYPE= ULTRAVIOLET SPECTRUM
##SAMPLE DESCRIPTION= $$
$$         12:29:08    24/03/27
##SPECTROMETER/DATA SYSTEM= Perkin-Elmer Lambda Series / PECSS
##DATE= 24/03/27
##XUNITS= NANOMETERS
##YUNITS= TRANSMITTANCE
##MAXY= 0.9284
##MINY= 0.0003
##XFACTOR= 1.00
##YFACTOR= 1.0000
##FIRSTX= 200.0
##LASTX= 3200.0
##NPOINTS= 3001
##FIRSTY= 0.0551
##XYDATA= (XY..XY)
200 0.0551
201 0.0397
202 0.0336
203 0.0286
204 0.0244
205 0.0178
206 0.0151
207 0.0131
208 0.0113
209 0.0085
210 0.0074
211 0.0065
212 0.0057
213 0.0046
214 0.0042
215 0.0039
216 0.0036
217 0.0029
218 0.0027
219 0.0024
220 0.0022
221 0.0018
222 0.0016
223 0.0014
224 0.0013
225 0.0011
226 0.0011
227 0.0010
228 0.0009
229 0.0008
230 0.0007
231 0.0006
232 0.0006
233 0.0005
234 0.0005
235 0.0005
236 0.0005
237 0.0004
238 0.0004
239 0.0003
240 0.0003
241 0.0003
242 0.0003
243 0.0003
244 0.0003
245 0.0003
246 0.0003
247 0.0004
248 0.0004
249 0.0005
250 0.0006
251 0.0006
252 0.0007
253 0.0010
254 0.0011
255 0.0013
256 0.0016
257 0.0022
258 0.0026
259 0.0030
260 0.0035
261 0.0048
262 0.0056
263 0.0066
264 0.0078
265 0.0106
266 0.0123
267 0.0143
268 0.0165
269 0.0220
270 0.0252
271 0.0288
272 0.0328
273 0.0424
274 0.0480
275 0.0542
276 0.0609
277 0.0761
278 0.0847
279 0.0938
280 0.1037
281 0.1256
282 0.1374
283 0.1500
284 0.1633
285 0.1916
286 0.2068
287 0.2225
288 0.2384
289 0.2721
290 0.2893
291 0.3067
292 0.3247
293 0.3612
294 0.3796
295 0.3983
296 0.4166
297 0.4533
298 0.4715
299 0.4890
300 0.5062
301 0.5411
302 0.5574
303 0.5740
304 0.5903
305 0.6197
306 0.6343
307 0.6483
308 0.6611
309 0.6874
310 0.6993
311 0.7107
312 0.7225
313 0.7432
314 0.7526
315 0.7629
316 0.7717
317 0.7873
318 0.7953
319 0.8025
320 0.8093
321 0.8221
322 0.8278
323 0.8332
324 0.8385
325 0.8482
326 0.8527
327 0.8568
328 0.8609
329 0.8680
330 0.8712
331 0.8745
332 0.8774
333 0.8817
334 0.8838
335 0.8860
336 0.8884
337 0.8926
338 0.8945
339 0.8965
340 0.8984
341 0.9008
342 0.9022
343 0.9034
344 0.9044
345 0.9062
346 0.9069
347 0.9077
348 0.9087
349 0.9107
350 0.9115
351 0.9122
352 0.9128
353 0.9136
354 0.9146
355 0.9155
356 0.9161
357 0.9167
358 0.9170
359 0.9171
360 0.9172
361 0.9181
362 0.9179
363 0.9178
364 0.9177
365 0.9179
366 0.9179
367 0.9179
368 0.9182
369 0.9187
370 0.9189
371 0.9187
372 0.9185
373 0.9182
374 0.9179
375 0.9177
376 0.9176
377 0.9188
378 0.9197
379 0.9202
380 0.9204
381 0.9204
382 0.9205
383 0.9207
384 0.9208
385 0.9208
386 0.9207
387 0.9210
388 0.9214
389 0.9220
390 0.9224
391 0.9227
392 0.9232
393 0.9235
394 0.9237
395 0.9237
396 0.9236
397 0.9233
398 0.9230
399 0.9231
400 0.9230
401 0.9233
402 0.9235
403 0.9236
404 0.9239
405 0.9240
406 0.9241
407 0.9241
408 0.9243
409 0.9242
410 0.9242
411 0.9242
412 0.9239
413 0.9235
414 0.9235
415 0.9235
416 0.9235
417 0.9238
418 0.9239
419 0.9242
420 0.9243
421 0.9249
422 0.9252
423 0.9253
424 0.9253
425 0.9251
426 0.9250
427 0.9253
428 0.9256
429 0.9254
430 0.9251
431 0.9251
432 0.9249
433 0.9252
434 0.9252
435 0.9250
436 0.9251
437 0.9253
438 0.9250
439 0.9250
440 0.9249
441 0.9249
442 0.9247
443 0.9247
444 0.9253
445 0.9261
446 0.9259
447 0.9255
448 0.9251
449 0.9254
450 0.9257
451 0.9256
452 0.9258
453 0.9258
454 0.9258
455 0.9258
456 0.9260
457 0.9260
458 0.9261
459 0.9263
460 0.9265
461 0.9264
462 0.9264
463 0.9262
464 0.9261
465 0.9262
466 0.9263
467 0.9266
468 0.9268
469 0.9269
470 0.9270
471 0.9268
472 0.9266
473 0.9264
474 0.9263
475 0.9263
476 0.9265
477 0.9269
478 0.9269
479 0.9267
480 0.9268
481 0.9270
482 0.9271
483 0.9272
484 0.9272
485 0.9269
486 0.9268
487 0.9268
488 0.9268
489 0.9267
490 0.9265
491 0.9266
492 0.9267
493 0.9269
494 0.9267
495 0.9266
496 0.9264
497 0.9264
498 0.9264
499 0.9266
500 0.9268
501 0.9271
502 0.9271
503 0.9270
504 0.9269
505 0.9272
506 0.9272
507 0.9273
508 0.9272
509 0.9269
510 0.9267
511 0.9265
512 0.9266
513 0.9270
514 0.9271
515 0.9272
516 0.9274
517 0.9274
518 0.9274
519 0.9273
520 0.9272
521 0.9275
522 0.9276
523 0.9276
524 0.9276
525 0.9274
526 0.9275
527 0.9277
528 0.9278
529 0.9276
530 0.9276
531 0.9277
532 0.9276
533 0.9274
534 0.9272
535 0.9271
536 0.9270
537 0.9272
538 0.9272
539 0.9273
540 0.9274
541 0.9273
542 0.9271
543 0.9272
544 0.9272
545 0.9277
546 0.9277
547 0.9278
548 0.9278
549 0.9278
550 0.9278
551 0.9275
552 0.9272
553 0.9273
554 0.9273
555 0.9272
556 0.9270
557 0.9268
558 0.9267
559 0.9267
560 0.9267
561 0.9273
562 0.9271
563 0.9272
564 0.9273
565 0.9270
566 0.9272
567 0.9274
568 0.9275
569 0.9277
570 0.9277
571 0.9275
572 0.9274
573 0.9273
574 0.9274
575 0.9273
576 0.9271
577 0.9272
578 0.9273
579 0.9273
580 0.9273
581 0.9270
582 0.9272
583 0.9275
584 0.9279
585 0.9280
586 0.9281
587 0.9279
588 0.9276
589 0.9278
590 0.9275
591 0.9274
592 0.9275
593 0.9273
594 0.9273
595 0.9273
596 0.9274
597 0.9274
598 0.9274
599 0.9274
600 0.9271
601 0.9271
602 0.9270
603 0.9271
604 0.9274
605 0.9277
606 0.9277
607 0.9274
608 0.9271
609 0.9265
610 0.9265
611 0.9265
612 0.9268
613 0.9266
614 0.9264
615 0.9263
616 0.9262
617 0.9265
618 0.9267
619 0.9271
620 0.9273
621 0.9275
622 0.9275
623 0.9274
624 0.9273
625 0.9272
626 0.9270
627 0.9267
628 0.9264
629 0.9265
630 0.9264
631 0.9265
632 0.9267
633 0.9261
634 0.9261
635 0.9262
636 0.9263
637 0.9267
638 0.9265
639 0.9262
640 0.9260
641 0.9264
642 0.9264
643 0.9261
644 0.9255
645 0.9254
646 0.9256
647 0.9259
648 0.9261
649 0.9262
650 0.9260
651 0.9257
652 0.9258
653 0.9261
654 0.9265
655 0.9268
656 0.9267
657 0.9260
658 0.9256
659 0.9255
660 0.9255
661 0.9250
662 0.9251
663 0.9255
664 0.9256
665 0.9253
666 0.9251
667 0.9248
668 0.9248
669 0.9250
670 0.9252
671 0.9254
672 0.9256
673 0.9256
674 0.9252
675 0.9246
676 0.9244
677 0.9253
678 0.9256
679 0.9254
680 0.9254
681 0.9256
682 0.9256
683 0.9259
684 0.9261
685 0.9260
686 0.9257
687 0.9255
688 0.9251
689 0.9249
690 0.9249
691 0.9248
692 0.9247
693 0.9245
694 0.9246
695 0.9251
696 0.9252
697 0.9245
698 0.9243
699 0.9242
700 0.9244
701 0.9247
702 0.9249
703 0.9251
704 0.9249
705 0.9243
706 0.9243
707 0.9247
708 0.9251
709 0.9248
710 0.9243
711 0.9244
712 0.9247
713 0.9244
714 0.9239
715 0.9237
716 0.9238
717 0.9243
718 0.9247
719 0.9250
720 0.9251
721 0.9249
722 0.9243
723 0.9239
724 0.9239
725 0.9231
726 0.9230
727 0.9228
728 0.9229
729 0.9229
730 0.9226
731 0.9222
732 0.9222
733 0.9226
734 0.9222
735 0.9224
736 0.9227
737 0.9228
738 0.9231
739 0.9233
740 0.9234
741 0.9236
742 0.9235
743 0.9233
744 0.9234
745 0.9238
746 0.9237
747 0.9231
748 0.9227
749 0.9228
750 0.9230
751 0.9225
752 0.9228
753 0.9236
754 0.9239
755 0.9240
756 0.9239
757 0.9234
758 0.9237
759 0.9236
760 0.9234
761 0.9236
762 0.9231
763 0.9231
764 0.9238
765 0.9244
766 0.9244
767 0.9241
768 0.9240
769 0.9237
770 0.9234
771 0.9224
772 0.9225
773 0.9220
774 0.9220
775 0.9223
776 0.9226
777 0.9232
778 0.9232
779 0.9229
780 0.9231
781 0.9227
782 0.9228
783 0.9227
784 0.9222
785 0.9219
786 0.9212
787 0.9207
788 0.9202
789 0.9203
790 0.9206
791 0.9209
792 0.9210
793 0.9222
794 0.9222
795 0.9222
796 0.9222
797 0.9226
798 0.9232
799 0.9230
800 0.9224
801 0.9216
802 0.9211
803 0.9211
804 0.9213
805 0.9207
806 0.9220
807 0.9225
808 0.9223
809 0.9221
810 0.9217
811 0.9210
812 0.9211
813 0.9212
814 0.9217
815 0.9218
816 0.9224
817 0.9229
818 0.9220
819 0.9212
820 0.9205
821 0.9209
822 0.9209
823 0.9200
824 0.9203
825 0.9201
826 0.9201
827 0.9198
828 0.9201
829 0.9191
830 0.9187
831 0.9185
832 0.9189
833 0.9198
834 0.9199
835 0.9206
836 0.9214
837 0.9190
838 0.9182
839 0.9168
840 0.9156
841 0.9167
842 0.9173
843 0.9179
844 0.9185
845 0.9191
846 0.9191
847 0.9199
848 0.9215
849 0.9222
850 0.9226
851 0.9233
852 0.9234
853 0.9236
854 0.9238
855 0.9227
856 0.9219
857 0.9190
858 0.9194
859 0.9214
860 0.9241
861 0.9238
862 0.9241
863 0.9244
864 0.9247
865 0.9246
866 0.9244
867 0.9240
868 0.9237
869 0.9240
870 0.9242
871 0.9245
872 0.9245
873 0.9240
874 0.9239
875 0.9239
876 0.9243
877 0.9247
878 0.9245
879 0.9244
880 0.9244
881 0.9246
882 0.9250
883 0.9252
884 0.9253
885 0.9252
886 0.9249
887 0.9249
888 0.9251
889 0.9254
890 0.9251
891 0.9249
892 0.9250
893 0.9248
894 0.9250
895 0.9251
896 0.9250
897 0.9253
898 0.9251
899 0.9250
900 0.9250
901 0.9246
902 0.9249
903 0.9252
904 0.9254
905 0.9255
906 0.9251
907 0.9250
908 0.9250
909 0.9252
910 0.9252
911 0.9252
912 0.9251
913 0.9249
914 0.9248
915 0.9248
916 0.9247
917 0.9247
918 0.9245
919 0.9246
920 0.9249
921 0.9253
922 0.9253
923 0.9255
924 0.9256
925 0.9259
926 0.9255
927 0.9253
928 0.9253
929 0.9247
930 0.9247
931 0.9249
932 0.9249
933 0.9247
934 0.9247
935 0.9247
936 0.9248
937 0.9246
938 0.9244
939 0.9243
940 0.9244
941 0.9244
942 0.9244
943 0.9247
944 0.9249
945 0.9251
946 0.9248
947 0.9246
948 0.9246
949 0.9248
950 0.9248
951 0.9247
952 0.9243
953 0.9242
954 0.9243
955 0.9243
956 0.9241
957 0.9243
958 0.9243
959 0.9244
960 0.9244
961 0.9241
962 0.9240
963 0.9239
964 0.9239
965 0.9244
966 0.9244
967 0.9243
968 0.9242
969 0.9241
970 0.9243
971 0.9244
972 0.9245
973 0.9243
974 0.9242
975 0.9242
976 0.9244
977 0.9243
978 0.9240
979 0.9239
980 0.9240
981 0.9238
982 0.9239
983 0.9239
984 0.9237
985 0.9240
986 0.9238
987 0.9237
988 0.9237
989 0.9236
990 0.9240
991 0.9240
992 0.9237
993 0.9238
994 0.9237
995 0.9238
996 0.9240
997 0.9239
998 0.9239
999 0.9237
1000 0.9237
1001 0.9238
1002 0.9238
1003 0.9238
1004 0.9235
1005 0.9240
1006 0.9239
1007 0.9237
1008 0.9236
1009 0.9237
1010 0.9239
1011 0.9239
1012 0.9236
1013 0.9236
1014 0.9237
1015 0.9238
1016 0.9238
1017 0.9235
1018 0.9233
1019 0.9234
1020 0.9235
1021 0.9235
1022 0.9235
1023 0.9233
1024 0.9232
1025 0.9230
1026 0.9229
1027 0.9229
1028 0.9232
1029 0.9235
1030 0.9234
1031 0.9236
1032 0.9234
1033 0.9238
1034 0.9238
1035 0.9236
1036 0.9236
1037 0.9236
1038 0.9238
1039 0.9239
1040 0.9240
1041 0.9239
1042 0.9238
1043 0.9239
1044 0.9239
1045 0.9240
1046 0.9240
1047 0.9241
1048 0.9242
1049 0.9241
1050 0.9242
1051 0.9242
1052 0.9240
1053 0.9237
1054 0.9236
1055 0.9236
1056 0.9236
1057 0.9237
1058 0.9235
1059 0.9235
1060 0.9235
1061 0.9237
1062 0.9237
1063 0.9238
1064 0.9238
1065 0.9239
1066 0.9236
1067 0.9233
1068 0.9234
1069 0.9234
1070 0.9235
1071 0.9236
1072 0.9236
1073 0.9241
1074 0.9239
1075 0.9237
1076 0.9236
1077 0.9234
1078 0.9234
1079 0.9237
1080 0.9238
1081 0.9239
1082 0.9241
1083 0.9243
1084 0.9243
1085 0.9243
1086 0.9243
1087 0.9242
1088 0.9241
1089 0.9239
1090 0.9242
1091 0.9244
1092 0.9243
1093 0.9242
1094 0.9240
1095 0.9239
1096 0.9240
1097 0.9241
1098 0.9242
1099 0.9242
1100 0.9241
1101 0.9238
1102 0.9238
1103 0.9239
1104 0.9239
1105 0.9240
1106 0.9240
1107 0.9241
1108 0.9242
1109 0.9241
1110 0.9241
1111 0.9242
1112 0.9240
1113 0.9240
1114 0.9240
1115 0.9239
1116 0.9239
1117 0.9238
1118 0.9240
1119 0.9240
1120 0.9240
1121 0.9239
1122 0.9240
1123 0.9240
1124 0.9240
1125 0.9239
1126 0.9237
1127 0.9237
1128 0.9239
1129 0.9241
1130 0.9242
1131 0.9241
1132 0.9239
1133 0.9239
1134 0.9239
1135 0.9239
1136 0.9241
1137 0.9242
1138 0.9242
1139 0.9242
1140 0.9240
1141 0.9240
1142 0.9238
1143 0.9236
1144 0.9236
1145 0.9239
1146 0.9239
1147 0.9240
1148 0.9239
1149 0.9237
1150 0.9236
1151 0.9237
1152 0.9235
1153 0.9239
1154 0.9241
1155 0.9241
1156 0.9241
1157 0.9241
1158 0.9242
1159 0.9242
1160 0.9240
1161 0.9239
1162 0.9237
1163 0.9237
1164 0.9239
1165 0.9240
1166 0.9240
1167 0.9238
1168 0.9237
1169 0.9236
1170 0.9238
1171 0.9238
1172 0.9237
1173 0.9236
1174 0.9235
1175 0.9236
1176 0.9236
1177 0.9236
1178 0.9237
1179 0.9238
1180 0.9238
1181 0.9239
1182 0.9239
1183 0.9240
1184 0.9239
1185 0.9234
1186 0.9233
1187 0.9233
1188 0.9232
1189 0.9229
1190 0.9231
1191 0.9232
1192 0.9232
1193 0.9232
1194 0.9232
1195 0.9232
1196 0.9233
1197 0.9234
1198 0.9233
1199 0.9231
1200 0.9230
1201 0.9233
1202 0.9236
1203 0.9238
1204 0.9237
1205 0.9235
1206 0.9234
1207 0.9234
1208 0.9234
1209 0.9233
1210 0.9234
1211 0.9234
1212 0.9234
1213 0.9238
1214 0.9238
1215 0.9236
1216 0.9235
1217 0.9230
1218 0.9230
1219 0.9231
1220 0.9232
1221 0.9236
1222 0.9236
1223 0.9234
1224 0.9232
1225 0.9230
1226 0.9231
1227 0.9230
1228 0.9230
1229 0.9231
1230 0.9229
1231 0.9229
1232 0.9229
1233 0.9230
1234 0.9231
1235 0.9229
1236 0.9230
1237 0.9232
1238 0.9234
1239 0.9235
1240 0.9235
1241 0.9235
1242 0.9234
1243 0.9233
1244 0.9233
1245 0.9231
1246 0.9231
1247 0.9232
1248 0.9232
1249 0.9231
1250 0.9231
1251 0.9230
1252 0.9233
1253 0.9235
1254 0.9234
1255 0.9233
1256 0.9232
1257 0.9231
1258 0.9231
1259 0.9231
1260 0.9232
1261 0.9232
1262 0.9230
1263 0.9230
1264 0.9231
1265 0.9232
1266 0.9233
1267 0.9232
1268 0.9232
1269 0.9232
1270 0.9233
1271 0.9232
1272 0.9231
1273 0.9232
1274 0.9233
1275 0.9236
1276 0.9238
1277 0.9236
1278 0.9236
1279 0.9235
1280 0.9233
1281 0.9232
1282 0.9232
1283 0.9231
1284 0.9232
1285 0.9229
1286 0.9230
1287 0.9231
1288 0.9230
1289 0.9235
1290 0.9235
1291 0.9234
1292 0.9235
1293 0.9233
1294 0.9233
1295 0.9232
1296 0.9231
1297 0.9230
1298 0.9232
1299 0.9234
1300 0.9234
1301 0.9235
1302 0.9234
1303 0.9233
1304 0.9233
1305 0.9233
1306 0.9235
1307 0.9237
1308 0.9237
1309 0.9241
1310 0.9242
1311 0.9239
1312 0.9238
1313 0.9236
1314 0.9235
1315 0.9234
1316 0.9232
1317 0.9231
1318 0.9232
1319 0.9232
1320 0.9231
1321 0.9232
1322 0.9234
1323 0.9233
1324 0.9233
1325 0.9230
1326 0.9231
1327 0.9232
1328 0.9232
1329 0.9234
1330 0.9234
1331 0.9235
1332 0.9238
1333 0.9239
1334 0.9241
1335 0.9241
1336 0.9239
1337 0.9236
1338 0.9236
1339 0.9235
1340 0.9235
1341 0.9236
1342 0.9237
1343 0.9236
1344 0.9236
1345 0.9232
1346 0.9233
1347 0.9233
1348 0.9234
1349 0.9240
1350 0.9241
1351 0.9239
1352 0.9237
1353 0.9237
1354 0.9237
1355 0.9239
1356 0.9239
1357 0.9239
1358 0.9240
1359 0.9239
1360 0.9240
1361 0.9243
1362 0.9241
1363 0.9241
1364 0.9241
1365 0.9243
1366 0.9245
1367 0.9244
1368 0.9241
1369 0.9236
1370 0.9235
1371 0.9235
1372 0.9238
1373 0.9241
1374 0.9241
1375 0.9241
1376 0.9241
1377 0.9243
1378 0.9245
1379 0.9243
1380 0.9241
1381 0.9237
1382 0.9237
1383 0.9238
1384 0.9241
1385 0.9241
1386 0.9242
1387 0.9242
1388 0.9241
1389 0.9248
1390 0.9250
1391 0.9250
1392 0.9248
1393 0.9241
1394 0.9239
1395 0.9238
1396 0.9237
1397 0.9238
1398 0.9239
1399 0.9239
1400 0.9241
1401 0.9239
1402 0.9240
1403 0.9242
1404 0.9243
1405 0.9240
1406 0.9240
1407 0.9240
1408 0.9240
1409 0.9240
1410 0.9239
1411 0.9239
1412 0.9240
1413 0.9239
1414 0.9240
1415 0.9241
1416 0.9242
1417 0.9246
1418 0.9246
1419 0.9245
1420 0.9245
1421 0.9243
1422 0.9244
1423 0.9245
1424 0.9246
1425 0.9244
1426 0.9245
1427 0.9246
1428 0.9246
1429 0.9246
1430 0.9244
1431 0.9243
1432 0.9244
1433 0.9244
1434 0.9245
1435 0.9245
1436 0.9244
1437 0.9246
1438 0.9247
1439 0.9245
1440 0.9245
1441 0.9244
1442 0.9246
1443 0.9247
1444 0.9248
1445 0.9248
1446 0.9249
1447 0.9250
1448 0.9250
1449 0.9249
1450 0.9248
1451 0.9248
1452 0.9251
1453 0.9251
1454 0.9251
1455 0.9250
1456 0.9249
1457 0.9252
1458 0.9253
1459 0.9253
1460 0.9254
1461 0.9254
1462 0.9256
1463 0.9256
1464 0.9256
1465 0.9253
1466 0.9254
1467 0.9253
1468 0.9253
1469 0.9255
1470 0.9255
1471 0.9252
1472 0.9253
1473 0.9252
1474 0.9254
1475 0.9253
1476 0.9251
1477 0.9255
1478 0.9254
1479 0.9252
1480 0.9253
1481 0.9252
1482 0.9253
1483 0.9254
1484 0.9253
1485 0.9253
1486 0.9254
1487 0.9255
1488 0.9256
1489 0.9258
1490 0.9257
1491 0.9256
1492 0.9256
1493 0.9257
1494 0.9258
1495 0.9258
1496 0.9256
1497 0.9259
1498 0.9259
1499 0.9258
1500 0.9260
1501 0.9259
1502 0.9260
1503 0.9259
1504 0.9258
1505 0.9259
1506 0.9261
1507 0.9261
1508 0.9261
1509 0.9262
1510 0.9263
1511 0.9263
1512 0.9261
1513 0.9258
1514 0.9259
1515 0.9258
1516 0.9259
1517 0.9262
1518 0.9262
1519 0.9260
1520 0.9261
1521 0.9262
1522 0.9263
1523 0.9265
1524 0.9264
1525 0.9264
1526 0.9264
1527 0.9263
1528 0.9264
1529 0.9264
1530 0.9264
1531 0.9265
1532 0.9265
1533 0.9263
1534 0.9262
1535 0.9261
1536 0.9260
1537 0.9261
1538 0.9260
1539 0.9261
1540 0.9262
1541 0.9261
1542 0.9262
1543 0.9261
1544 0.9262
1545 0.9261
1546 0.9262
1547 0.9262
1548 0.9264
1549 0.9265
1550 0.9267
1551 0.9269
1552 0.9269
1553 0.9265
1554 0.9266
1555 0.9266
1556 0.9267
1557 0.9269
1558 0.9269
1559 0.9269
1560 0.9269
1561 0.9263
1562 0.9263
1563 0.9263
1564 0.9261
1565 0.9263
1566 0.9263
1567 0.9263
1568 0.9264
1569 0.9266
1570 0.9269
1571 0.9267
1572 0.9265
1573 0.9266
1574 0.9266
1575 0.9266
1576 0.9267
1577 0.9272
1578 0.9273
1579 0.9271
1580 0.9268
1581 0.9265
1582 0.9265
1583 0.9266
1584 0.9267
1585 0.9269
1586 0.9270
1587 0.9270
1588 0.9269
1589 0.9268
1590 0.9269
1591 0.9270
1592 0.9270
1593 0.9268
1594 0.9269
1595 0.9271
1596 0.9274
1597 0.9272
1598 0.9272
1599 0.9270
1600 0.9269
1601 0.9267
1602 0.9266
1603 0.9266
1604 0.9267
1605 0.9266
1606 0.9268
1607 0.9267
1608 0.9268
1609 0.9268
1610 0.9269
1611 0.9271
1612 0.9272
1613 0.9270
1614 0.9272
1615 0.9272
1616 0.9271
1617 0.9272
1618 0.9272
1619 0.9274
1620 0.9273
1621 0.9270
1622 0.9271
1623 0.9272
1624 0.9274
1625 0.9273
1626 0.9274
1627 0.9275
1628 0.9276
1629 0.9276
1630 0.9277
1631 0.9277
1632 0.9277
1633 0.9273
1634 0.9274
1635 0.9274
1636 0.9276
1637 0.9276
1638 0.9270
1639 0.9268
1640 0.9269
1641 0.9270
1642 0.9272
1643 0.9271
1644 0.9270
1645 0.9271
1646 0.9273
1647 0.9276
1648 0.9277
1649 0.9275
1650 0.9274
1651 0.9273
1652 0.9274
1653 0.9273
1654 0.9273
1655 0.9274
1656 0.9275
1657 0.9272
1658 0.9271
1659 0.9271
1660 0.9271
1661 0.9269
1662 0.9272
1663 0.9273
1664 0.9274
1665 0.9275
1666 0.9277
1667 0.9277
1668 0.9280
1669 0.9281
1670 0.9278
1671 0.9277
1672 0.9274
1673 0.9275
1674 0.9277
1675 0.9277
1676 0.9278
1677 0.9276
1678 0.9274
1679 0.9275
1680 0.9273
1681 0.9274
1682 0.9274
1683 0.9274
1684 0.9275
1685 0.9277
1686 0.9279
1687 0.9280
1688 0.9279
1689 0.9279
1690 0.9277
1691 0.9278
1692 0.9279
1693 0.9281
1694 0.9282
1695 0.9281
1696 0.9279
1697 0.9282
1698 0.9281
1699 0.9282
1700 0.9281
1701 0.9278
1702 0.9281
1703 0.9281
1704 0.9281
1705 0.9281
1706 0.9279
1707 0.9280
1708 0.9280
1709 0.9278
1710 0.9276
1711 0.9277
1712 0.9277
1713 0.9278
1714 0.9278
1715 0.9279
1716 0.9280
1717 0.9281
1718 0.9279
1719 0.9280
1720 0.9282
1721 0.9283
1722 0.9284
1723 0.9283
1724 0.9280
1725 0.9278
1726 0.9277
1727 0.9278
1728 0.9279
1729 0.9278
1730 0.9279
1731 0.9278
1732 0.9279
1733 0.9281
1734 0.9280
1735 0.9279
1736 0.9278
1737 0.9277
1738 0.9278
1739 0.9279
1740 0.9279
1741 0.9278
1742 0.9278
1743 0.9279
1744 0.9276
1745 0.9279
1746 0.9279
1747 0.9281
1748 0.9282
1749 0.9281
1750 0.9281
1751 0.9281
1752 0.9280
1753 0.9279
1754 0.9278
1755 0.9276
1756 0.9277
1757 0.9280
1758 0.9279
1759 0.9280
1760 0.9281
1761 0.9283
1762 0.9282
1763 0.9280
1764 0.9277
1765 0.9280
1766 0.9278
1767 0.9279
1768 0.9278
1769 0.9275
1770 0.9276
1771 0.9277
1772 0.9277
1773 0.9280
1774 0.9279
1775 0.9279
1776 0.9277
1777 0.9276
1778 0.9276
1779 0.9276
1780 0.9274
1781 0.9269
1782 0.9270
1783 0.9274
1784 0.9273
1785 0.9270
1786 0.9267
1787 0.9268
1788 0.9269
1789 0.9269
1790 0.9270
1791 0.9270
1792 0.9269
1793 0.9272
1794 0.9271
1795 0.9271
1796 0.9270
1797 0.9269
1798 0.9270
1799 0.9270
1800 0.9266
1801 0.9266
1802 0.9268
1803 0.9268
1804 0.9265
1805 0.9267
1806 0.9267
1807 0.9267
1808 0.9268
1809 0.9267
1810 0.9267
1811 0.9269
1812 0.9268
1813 0.9272
1814 0.9270
1815 0.9270
1816 0.9272
1817 0.9269
1818 0.9270
1819 0.9269
1820 0.9267
1821 0.9268
1822 0.9268
1823 0.9269
1824 0.9270
1825 0.9272
1826 0.9271
1827 0.9269
1828 0.9269
1829 0.9270
1830 0.9270
1831 0.9270
1832 0.9269
1833 0.9267
1834 0.9266
1835 0.9266
1836 0.9268
1837 0.9266
1838 0.9265
1839 0.9265
1840 0.9264
1841 0.9269
1842 0.9268
1843 0.9266
1844 0.9264
1845 0.9264
1846 0.9266
1847 0.9268
1848 0.9267
1849 0.9267
1850 0.9266
1851 0.9267
1852 0.9268
1853 0.9270
1854 0.9270
1855 0.9269
1856 0.9268
1857 0.9267
1858 0.9266
1859 0.9268
1860 0.9266
1861 0.9263
1862 0.9264
1863 0.9264
1864 0.9263
1865 0.9264
1866 0.9265
1867 0.9269
1868 0.9271
1869 0.9279
1870 0.9279
1871 0.9278
1872 0.9278
1873 0.9274
1874 0.9271
1875 0.9272
1876 0.9271
1877 0.9268
1878 0.9267
1879 0.9269
1880 0.9270
1881 0.9271
1882 0.9271
1883 0.9267
1884 0.9264
1885 0.9266
1886 0.9266
1887 0.9269
1888 0.9268
1889 0.9263
1890 0.9262
1891 0.9259
1892 0.9257
1893 0.9259
1894 0.9260
1895 0.9263
1896 0.9265
1897 0.9261
1898 0.9261
1899 0.9261
1900 0.9259
1901 0.9258
1902 0.9257
1903 0.9255
1904 0.9254
1905 0.9256
1906 0.9255
1907 0.9257
1908 0.9257
1909 0.9255
1910 0.9254
1911 0.9251
1912 0.9250
1913 0.9251
1914 0.9249
1915 0.9251
1916 0.9254
1917 0.9252
1918 0.9250
1919 0.9251
1920 0.9251
1921 0.9254
1922 0.9254
1923 0.9254
1924 0.9252
1925 0.9257
1926 0.9258
1927 0.9258
1928 0.9257
1929 0.9254
1930 0.9257
1931 0.9257
1932 0.9256
1933 0.9256
1934 0.9254
1935 0.9255
1936 0.9258
1937 0.9257
1938 0.9258
1939 0.9258
1940 0.9258
1941 0.9260
1942 0.9260
1943 0.9260
1944 0.9260
1945 0.9258
1946 0.9259
1947 0.9260
1948 0.9262
1949 0.9268
1950 0.9270
1951 0.9268
1952 0.9265
1953 0.9267
1954 0.9268
1955 0.9269
1956 0.9269
1957 0.9264
1958 0.9268
1959 0.9269
1960 0.9269
1961 0.9268
1962 0.9267
1963 0.9268
1964 0.9268
1965 0.9266
1966 0.9266
1967 0.9268
1968 0.9268
1969 0.9267
1970 0.9269
1971 0.9270
1972 0.9269
1973 0.9268
1974 0.9267
1975 0.9268
1976 0.9271
1977 0.9268
1978 0.9267
1979 0.9268
1980 0.9268
1981 0.9275
1982 0.9273
1983 0.9272
1984 0.9273
1985 0.9272
1986 0.9272
1987 0.9270
1988 0.9266
1989 0.9269
1990 0.9270
1991 0.9269
1992 0.9270
1993 0.9272
1994 0.9271
1995 0.9270
1996 0.9269
1997 0.9268
1998 0.9268
1999 0.9269
2000 0.9268
2001 0.9271
2002 0.9270
2003 0.9270
2004 0.9273
2005 0.9272
2006 0.9272
2007 0.9273
2008 0.9271
2009 0.9272
2010 0.9269
2011 0.9267
2012 0.9272
2013 0.9270
2014 0.9268
2015 0.9268
2016 0.9269
2017 0.9273
2018 0.9270
2019 0.9271
2020 0.9270
2021 0.9267
2022 0.9269
2023 0.9271
2024 0.9271
2025 0.9270
2026 0.9269
2027 0.9271
2028 0.9270
2029 0.9268
2030 0.9273
2031 0.9272
2032 0.9272
2033 0.9273
2034 0.9275
2035 0.9278
2036 0.9276
2037 0.9271
2038 0.9272
2039 0.9269
2040 0.9271
2041 0.9272
2042 0.9270
2043 0.9272
2044 0.9276
2045 0.9273
2046 0.9272
2047 0.9271
2048 0.9272
2049 0.9275
2050 0.9276
2051 0.9274
2052 0.9269
2053 0.9268
2054 0.9267
2055 0.9268
2056 0.9269
2057 0.9268
2058 0.9268
2059 0.9268
2060 0.9267
2061 0.9273
2062 0.9272
2063 0.9269
2064 0.9270
2065 0.9268
2066 0.9271
2067 0.9271
2068 0.9269
2069 0.9269
2070 0.9268
2071 0.9268
2072 0.9268
2073 0.9268
2074 0.9269
2075 0.9269
2076 0.9268
2077 0.9269
2078 0.9270
2079 0.9271
2080 0.9269
2081 0.9267
2082 0.9267
2083 0.9267
2084 0.9267
2085 0.9264
2086 0.9263
2087 0.9264
2088 0.9264
2089 0.9268
2090 0.9269
2091 0.9266
2092 0.9265
2093 0.9260
2094 0.9259
2095 0.9262
2096 0.9264
2097 0.9264
2098 0.9265
2099 0.9262
2100 0.9262
2101 0.9264
2102 0.9263
2103 0.9264
2104 0.9264
2105 0.9261
2106 0.9261
2107 0.9263
2108 0.9264
2109 0.9266
2110 0.9267
2111 0.9265
2112 0.9264
2113 0.9265
2114 0.9264
2115 0.9266
2116 0.9267
2117 0.9266
2118 0.9266
2119 0.9265
2120 0.9263
2121 0.9262
2122 0.9259
2123 0.9260
2124 0.9264
2125 0.9262
2126 0.9263
2127 0.9262
2128 0.9261
2129 0.9263
2130 0.9262
2131 0.9261
2132 0.9260
2133 0.9256
2134 0.9256
2135 0.9258
2136 0.9258
2137 0.9263
2138 0.9263
2139 0.9262
2140 0.9261
2141 0.9262
2142 0.9259
2143 0.9258
2144 0.9258
2145 0.9250
2146 0.9250
2147 0.9251
2148 0.9251
2149 0.9255
2150 0.9254
2151 0.9253
2152 0.9255
2153 0.9252
2154 0.9252
2155 0.9253
2156 0.9253
2157 0.9255
2158 0.9254
2159 0.9251
2160 0.9250
2161 0.9253
2162 0.9252
2163 0.9252
2164 0.9252
2165 0.9246
2166 0.9246
2167 0.9247
2168 0.9246
2169 0.9245
2170 0.9244
2171 0.9244
2172 0.9246
2173 0.9247
2174 0.9248
2175 0.9249
2176 0.9247
2177 0.9247
2178 0.9248
2179 0.9245
2180 0.9243
2181 0.9243
2182 0.9242
2183 0.9243
2184 0.9240
2185 0.9235
2186 0.9234
2187 0.9234
2188 0.9233
2189 0.9231
2190 0.9230
2191 0.9231
2192 0.9232
2193 0.9230
2194 0.9228
2195 0.9227
2196 0.9228
2197 0.9231
2198 0.9230
2199 0.9228
2200 0.9229
2201 0.9230
2202 0.9228
2203 0.9227
2204 0.9224
2205 0.9223
2206 0.9226
2207 0.9226
2208 0.9224
2209 0.9229
2210 0.9227
2211 0.9224
2212 0.9224
2213 0.9222
2214 0.9223
2215 0.9223
2216 0.9222
2217 0.9223
2218 0.9221
2219 0.9221
2220 0.9221
2221 0.9222
2222 0.9224
2223 0.9227
2224 0.9226
2225 0.9221
2226 0.9222
2227 0.9222
2228 0.9221
2229 0.9220
2230 0.9219
2231 0.9220
2232 0.9223
2233 0.9220
2234 0.9219
2235 0.9221
2236 0.9221
2237 0.9226
2238 0.9226
2239 0.9225
2240 0.9227
2241 0.9230
2242 0.9227
2243 0.9226
2244 0.9225
2245 0.9225
2246 0.9226
2247 0.9226
2248 0.9225
2249 0.9226
2250 0.9225
2251 0.9224
2252 0.9226
2253 0.9226
2254 0.9226
2255 0.9226
2256 0.9225
2257 0.9227
2258 0.9228
2259 0.9226
2260 0.9224
2261 0.9223
2262 0.9225
2263 0.9228
2264 0.9227
2265 0.9229
2266 0.9232
2267 0.9230
2268 0.9227
2269 0.9223
2270 0.9220
2271 0.9219
2272 0.9220
2273 0.9223
2274 0.9225
2275 0.9228
2276 0.9227
2277 0.9230
2278 0.9230
2279 0.9228
2280 0.9230
2281 0.9222
2282 0.9221
2283 0.9224
2284 0.9224
2285 0.9227
2286 0.9230
2287 0.9229
2288 0.9226
2289 0.9226
2290 0.9227
2291 0.9229
2292 0.9230
2293 0.9225
2294 0.9227
2295 0.9229
2296 0.9226
2297 0.9228
2298 0.9228
2299 0.9227
2300 0.9228
2301 0.9223
2302 0.9224
2303 0.9226
2304 0.9226
2305 0.9227
2306 0.9229
2307 0.9227
2308 0.9225
2309 0.9228
2310 0.9227
2311 0.9228
2312 0.9229
2313 0.9232
2314 0.9232
2315 0.9230
2316 0.9228
2317 0.9230
2318 0.9229
2319 0.9229
2320 0.9230
2321 0.9229
2322 0.9230
2323 0.9231
2324 0.9229
2325 0.9228
2326 0.9228
2327 0.9226
2328 0.9224
2329 0.9227
2330 0.9228
2331 0.9228
2332 0.9227
2333 0.9224
2334 0.9227
2335 0.9228
2336 0.9226
2337 0.9229
2338 0.9229
2339 0.9227
2340 0.9228
2341 0.9226
2342 0.9227
2343 0.9228
2344 0.9225
2345 0.9227
2346 0.9229
2347 0.9230
2348 0.9230
2349 0.9227
2350 0.9227
2351 0.9228
2352 0.9228
2353 0.9232
2354 0.9232
2355 0.9230
2356 0.9229
2357 0.9231
2358 0.9228
2359 0.9229
2360 0.9233
2361 0.9230
2362 0.9231
2363 0.9231
2364 0.9228
2365 0.9228
2366 0.9227
2367 0.9226
2368 0.9225
2369 0.9228
2370 0.9229
2371 0.9228
2372 0.9228
2373 0.9228
2374 0.9229
2375 0.9231
2376 0.9231
2377 0.9231
2378 0.9228
2379 0.9229
2380 0.9231
2381 0.9230
2382 0.9228
2383 0.9227
2384 0.9226
2385 0.9225
2386 0.9225
2387 0.9224
2388 0.9224
2389 0.9227
2390 0.9227
2391 0.9228
2392 0.9227
2393 0.9228
2394 0.9230
2395 0.9229
2396 0.9228
2397 0.9231
2398 0.9229
2399 0.9227
2400 0.9227
2401 0.9225
2402 0.9226
2403 0.9228
2404 0.9227
2405 0.9224
2406 0.9224
2407 0.9222
2408 0.9221
2409 0.9220
2410 0.9221
2411 0.9223
2412 0.9221
2413 0.9218
2414 0.9216
2415 0.9218
2416 0.9218
2417 0.9219
2418 0.9219
2419 0.9222
2420 0.9224
2421 0.9220
2422 0.9220
2423 0.9219
2424 0.9216
2425 0.9215
2426 0.9214
2427 0.9210
2428 0.9212
2429 0.9203
2430 0.9198
2431 0.9198
2432 0.9199
2433 0.9208
2434 0.9210
2435 0.9210
2436 0.9210
2437 0.9213
2438 0.9214
2439 0.9216
2440 0.9216
2441 0.9214
2442 0.9215
2443 0.9215
2444 0.9213
2445 0.9213
2446 0.9211
2447 0.9208
2448 0.9210
2449 0.9209
2450 0.9210
2451 0.9212
2452 0.9212
2453 0.9214
2454 0.9216
2455 0.9218
2456 0.9220
2457 0.9222
2458 0.9220
2459 0.9219
2460 0.9219
2461 0.9217
2462 0.9218
2463 0.9218
2464 0.9215
2465 0.9217
2466 0.9214
2467 0.9213
2468 0.9214
2469 0.9209
2470 0.9206
2471 0.9206
2472 0.9205
2473 0.9207
2474 0.9207
2475 0.9205
2476 0.9205
2477 0.9209
2478 0.9209
2479 0.9211
2480 0.9212
2481 0.9205
2482 0.9208
2483 0.9207
2484 0.9206
2485 0.9208
2486 0.9207
2487 0.9206
2488 0.9208
2489 0.9206
2490 0.9205
2491 0.9206
2492 0.9206
2493 0.9205
2494 0.9202
2495 0.9201
2496 0.9202
2497 0.9203
2498 0.9201
2499 0.9201
2500 0.9202
2501 0.9204
2502 0.9206
2503 0.9205
2504 0.9203
2505 0.9208
2506 0.9208
2507 0.9207
2508 0.9209
2509 0.9204
2510 0.9201
2511 0.9199
2512 0.9195
2513 0.9193
2514 0.9192
2515 0.9190
2516 0.9191
2517 0.9194
2518 0.9195
2519 0.9197
2520 0.9195
2521 0.9190
2522 0.9191
2523 0.9190
2524 0.9190
2525 0.9194
2526 0.9193
2527 0.9194
2528 0.9197
2529 0.9194
2530 0.9193
2531 0.9193
2532 0.9190
2533 0.9189
2534 0.9188
2535 0.9186
2536 0.9189
2537 0.9189
2538 0.9189
2539 0.9193
2540 0.9193
2541 0.9192
2542 0.9195
2543 0.9193
2544 0.9190
2545 0.9188
2546 0.9185
2547 0.9187
2548 0.9191
2549 0.9188
2550 0.9191
2551 0.9194
2552 0.9195
2553 0.9201
2554 0.9197
2555 0.9191
2556 0.9190
2557 0.9192
2558 0.9192
2559 0.9194
2560 0.9193
2561 0.9191
2562 0.9192
2563 0.9191
2564 0.9190
2565 0.9194
2566 0.9192
2567 0.9193
2568 0.9199
2569 0.9198
2570 0.9200
2571 0.9202
2572 0.9201
2573 0.9204
2574 0.9202
2575 0.9199
2576 0.9198
2577 0.9198
2578 0.9197
2579 0.9198
2580 0.9199
2581 0.9202
2582 0.9203
2583 0.9200
2584 0.9200
2585 0.9206
2586 0.9203
2587 0.9203
2588 0.9208
2589 0.9203
2590 0.9204
2591 0.9207
2592 0.9206
2593 0.9208
2594 0.9205
2595 0.9200
2596 0.9201
2597 0.9199
2598 0.9199
2599 0.9202
2600 0.9201
2601 0.9200
2602 0.9199
2603 0.9196
2604 0.9195
2605 0.9197
2606 0.9194
2607 0.9196
2608 0.9198
2609 0.9199
2610 0.9201
2611 0.9203
2612 0.9202
2613 0.9205
2614 0.9203
2615 0.9199
2616 0.9201
2617 0.9195
2618 0.9191
2619 0.9190
2620 0.9187
2621 0.9187
2622 0.9189
2623 0.9188
2624 0.9192
2625 0.9189
2626 0.9183
2627 0.9181
2628 0.9180
2629 0.9174
2630 0.9175
2631 0.9175
2632 0.9176
2633 0.9189
2634 0.9190
2635 0.9191
2636 0.9193
2637 0.9191
2638 0.9191
2639 0.9193
2640 0.9189
2641 0.9185
2642 0.9185
2643 0.9181
2644 0.9181
2645 0.9180
2646 0.9180
2647 0.9183
2648 0.9183
2649 0.9181
2650 0.9181
2651 0.9179
2652 0.9177
2653 0.9175
2654 0.9172
2655 0.9172
2656 0.9173
2657 0.9168
2658 0.9170
2659 0.9169
2660 0.9161
2661 0.9151
2662 0.9145
2663 0.9140
2664 0.9139
2665 0.9136
2666 0.9132
2667 0.9133
2668 0.9134
2669 0.9139
2670 0.9142
2671 0.9141
2672 0.9138
2673 0.9141
2674 0.9138
2675 0.9138
2676 0.9142
2677 0.9144
2678 0.9146
2679 0.9146
2680 0.9142
2681 0.9148
2682 0.9148
2683 0.9146
2684 0.9145
2685 0.9140
2686 0.9137
2687 0.9136
2688 0.9133
2689 0.9127
2690 0.9126
2691 0.9124
2692 0.9119
2693 0.9109
2694 0.9101
2695 0.9097
2696 0.9095
2697 0.9079
2698 0.9077
2699 0.9074
2700 0.9064
2701 0.9052
2702 0.9044
2703 0.9035
2704 0.9030
2705 0.9007
2706 0.8998
2707 0.8993
2708 0.8982
2709 0.8965
2710 0.8962
2711 0.8954
2712 0.8945
2713 0.8932
2714 0.8920
2715 0.8909
2716 0.8897
2717 0.8862
2718 0.8845
2719 0.8828
2720 0.8806
2721 0.8774
2722 0.8757
2723 0.8739
2724 0.8728
2725 0.8699
2726 0.8685
2727 0.8672
2728 0.8653
2729 0.8618
2730 0.8604
2731 0.8585
2732 0.8567
2733 0.8529
2734 0.8505
2735 0.8484
2736 0.8463
2737 0.8412
2738 0.8389
2739 0.8367
2740 0.8345
2741 0.8316
2742 0.8300
2743 0.8284
2744 0.8270
2745 0.8236
2746 0.8219
2747 0.8203
2748 0.8182
2749 0.8143
2750 0.8124
2751 0.8103
2752 0.8083
2753 0.8046
2754 0.8026
2755 0.8013
2756 0.8002
2757 0.7972
2758 0.7962
2759 0.7948
2760 0.7930
2761 0.7901
2762 0.7885
2763 0.7869
2764 0.7857
2765 0.7825
2766 0.7811
2767 0.7798
2768 0.7782
2769 0.7759
2770 0.7750
2771 0.7738
2772 0.7730
2773 0.7711
2774 0.7700
2775 0.7693
2776 0.7685
2777 0.7666
2778 0.7662
2779 0.7654
2780 0.7644
2781 0.7630
2782 0.7619
2783 0.7609
2784 0.7602
2785 0.7582
2786 0.7575
2787 0.7572
2788 0.7564
2789 0.7553
2790 0.7547
2791 0.7536
2792 0.7528
2793 0.7523
2794 0.7519
2795 0.7517
2796 0.7511
2797 0.7495
2798 0.7489
2799 0.7479
2800 0.7468
2801 0.7455
2802 0.7449
2803 0.7446
2804 0.7445
2805 0.7437
2806 0.7436
2807 0.7437
2808 0.7433
2809 0.7426
2810 0.7423
2811 0.7417
2812 0.7414
2813 0.7407
2814 0.7403
2815 0.7401
2816 0.7398
2817 0.7389
2818 0.7386
2819 0.7378
2820 0.7372
2821 0.7366
2822 0.7361
2823 0.7356
2824 0.7354
2825 0.7339
2826 0.7332
2827 0.7328
2828 0.7321
2829 0.7326
2830 0.7330
2831 0.7332
2832 0.7335
2833 0.7333
2834 0.7329
2835 0.7330
2836 0.7330
2837 0.7330
2838 0.7332
2839 0.7329
2840 0.7326
2841 0.7328
2842 0.7327
2843 0.7327
2844 0.7328
2845 0.7323
2846 0.7325
2847 0.7325
2848 0.7321
2849 0.7317
2850 0.7314
2851 0.7309
2852 0.7308
2853 0.7310
2854 0.7311
2855 0.7314
2856 0.7314
2857 0.7313
2858 0.7313
2859 0.7307
2860 0.7304
2861 0.7308
2862 0.7308
2863 0.7309
2864 0.7312
2865 0.7307
2866 0.7310
2867 0.7310
2868 0.7307
2869 0.7309
2870 0.7309
2871 0.7308
2872 0.7311
2873 0.7305
2874 0.7303
2875 0.7306
2876 0.7308
2877 0.7310
2878 0.7311
2879 0.7307
2880 0.7307
2881 0.7310
2882 0.7307
2883 0.7306
2884 0.7305
2885 0.7299
2886 0.7305
2887 0.7305
2888 0.7302
2889 0.7305
2890 0.7304
2891 0.7301
2892 0.7305
2893 0.7308
2894 0.7308
2895 0.7310
2896 0.7310
2897 0.7316
2898 0.7318
2899 0.7312
2900 0.7309
2901 0.7315
2902 0.7312
2903 0.7313
2904 0.7315
2905 0.7310
2906 0.7317
2907 0.7319
2908 0.7319
2909 0.7325
2910 0.7323
2911 0.7320
2912 0.7321
2913 0.7314
2914 0.7316
2915 0.7321
2916 0.7317
2917 0.7321
2918 0.7326
2919 0.7325
2920 0.7328
2921 0.7330
2922 0.7325
2923 0.7329
2924 0.7334
2925 0.7335
2926 0.7343
2927 0.7344
2928 0.7340
2929 0.7343
2930 0.7338
2931 0.7337
2932 0.7343
2933 0.7334
2934 0.7337
2935 0.7346
2936 0.7346
2937 0.7348
2938 0.7350
2939 0.7341
2940 0.7340
2941 0.7346
2942 0.7340
2943 0.7344
2944 0.7346
2945 0.7338
2946 0.7347
2947 0.7344
2948 0.7338
2949 0.7345
2950 0.7345
2951 0.7349
2952 0.7359
2953 0.7360
2954 0.7369
2955 0.7377
2956 0.7371
2957 0.7371
2958 0.7371
2959 0.7364
2960 0.7361
2961 0.7361
2962 0.7356
2963 0.7359
2964 0.7362
2965 0.7361
2966 0.7366
2967 0.7363
2968 0.7359
2969 0.7369
2970 0.7363
2971 0.7366
2972 0.7377
2973 0.7376
2974 0.7386
2975 0.7391
2976 0.7383
2977 0.7383
2978 0.7378
2979 0.7367
2980 0.7372
2981 0.7377
2982 0.7376
2983 0.7384
2984 0.7386
2985 0.7385
2986 0.7392
2987 0.7385
2988 0.7376
2989 0.7381
2990 0.7378
2991 0.7383
2992 0.7397
2993 0.7389
2994 0.7396
2995 0.7396
2996 0.7388
2997 0.7394
2998 0.7394
2999 0.7387
3000 0.7390
3001 0.7391
3002 0.7393
3003 0.7404
3004 0.7402
3005 0.7388
3006 0.7395
3007 0.7385
3008 0.7377
3009 0.7393
3010 0.7390
3011 0.7393
3012 0.7401
3013 0.7392
3014 0.7399
3015 0.7398
3016 0.7394
3017 0.7416
3018 0.7418
3019 0.7408
3020 0.7407
3021 0.7402
3022 0.7398
3023 0.7403
3024 0.7396
3025 0.7386
3026 0.7402
3027 0.7400
3028 0.7397
3029 0.7406
3030 0.7400
3031 0.7408
3032 0.7422
3033 0.7404
3034 0.7420
3035 0.7430
3036 0.7417
3037 0.7407
3038 0.7396
3039 0.7383
3040 0.7388
3041 0.7389
3042 0.7387
3043 0.7401
3044 0.7406
3045 0.7425
3046 0.7435
3047 0.7414
3048 0.7388
3049 0.7392
3050 0.7379
3051 0.7385
3052 0.7395
3053 0.7385
3054 0.7393
3055 0.7392
3056 0.7374
3057 0.7391
3058 0.7383
3059 0.7373
3060 0.7386
3061 0.7387
3062 0.7399
3063 0.7417
3064 0.7405
3065 0.7392
3066 0.7398
3067 0.7382
3068 0.7375
3069 0.7375
3070 0.7362
3071 0.7375
3072 0.7390
3073 0.7377
3074 0.7399
3075 0.7393
3076 0.7381
3077 0.7413
3078 0.7407
3079 0.7403
3080 0.7422
3081 0.7397
3082 0.7392
3083 0.7404
3084 0.7393
3085 0.7394
3086 0.7406
3087 0.7386
3088 0.7380
3089 0.7376
3090 0.7366
3091 0.7387
3092 0.7401
3093 0.7375
3094 0.7385
3095 0.7366
3096 0.7350
3097 0.7380
3098 0.7375
3099 0.7372
3100 0.7398
3101 0.7398
3102 0.7403
3103 0.7427
3104 0.7412
3105 0.7403
3106 0.7407
3107 0.7385
3108 0.7379
3109 0.7367
3110 0.7347
3111 0.7356
3112 0.7364
3113 0.7355
3114 0.7384
3115 0.7377
3116 0.7355
3117 0.7389
3118 0.7374
3119 0.7369
3120 0.7393
3121 0.7394
3122 0.7415
3123 0.7414
3124 0.7373
3125 0.7362
3126 0.7373
3127 0.7354
3128 0.7361
3129 0.7381
3130 0.7373
3131 0.7384
3132 0.7378
3133 0.7341
3134 0.7366
3135 0.7356
3136 0.7333
3137 0.7374
3138 0.7347
3139 0.7329
3140 0.7338
3141 0.7291
3142 0.7317
3143 0.7344
3144 0.7332
3145 0.7347
3146 0.7356
3147 0.7340
3148 0.7363
3149 0.7376
3150 0.7362
3151 0.7384
3152 0.7386
3153 0.7355
3154 0.7386
3155 0.7362
3156 0.7323
3157 0.7324
3158 0.7287
3159 0.7291
3160 0.7340
3161 0.7334
3162 0.7379
3163 0.7392
3164 0.7365
3165 0.7414
3166 0.7419
3167 0.7373
3168 0.7369
3169 0.7337
3170 0.7307
3171 0.7327
3172 0.7321
3173 0.7299
3174 0.7322
3175 0.7278
3176 0.7253
3177 0.7295
3178 0.7281
3179 0.7285
3180 0.7309
3181 0.7263
3182 0.7315
3183 0.7371
3184 0.7349
3185 0.7350
3186 0.7338
3187 0.7300
3188 0.7316
3189 0.7281
3190 0.7279
3191 0.7325
3192 0.7337
3193 0.7342
3194 0.7361
3195 0.7314
3196 0.7278
3197 0.7299
3198 0.7270
3199 0.7201
3200 0.7165
##END=
