##TITLE= Spolish
##JCAMP-DX= 4.24
##DATA TYPE= ULTRAVIOLET SPECTRUM
##SAMPLE DESCRIPTION= $$
$$         12:35:54    24/03/27
##SPECTROMETER/DATA SYSTEM= Perkin-Elmer Lambda Series / PECSS
##DATE= 24/03/27
##XUNITS= NANOMETERS
##YUNITS= TRANSMITTANCE
##MAXY= 0.5360
##MINY= -0.0021
##XFACTOR= 1.00
##YFACTOR= 1.0000
##FIRSTX= 200.0
##LASTX= 3200.0
##NPOINTS= 3001
##FIRSTY= 0.0723
##XYDATA= (XY..XY)
200 0.0723
201 0.0514
202 0.0436
203 0.0373
204 0.0317
205 0.0218
206 0.0186
207 0.0161
208 0.0139
209 0.0106
210 0.0092
211 0.0079
212 0.0070
213 0.0055
214 0.0048
215 0.0043
216 0.0039
217 0.0033
218 0.0030
219 0.0026
220 0.0024
221 0.0021
222 0.0020
223 0.0018
224 0.0016
225 0.0013
226 0.0012
227 0.0011
228 0.0011
229 0.0009
230 0.0009
231 0.0008
232 0.0008
233 0.0006
234 0.0005
235 0.0005
236 0.0005
237 0.0005
238 0.0005
239 0.0004
240 0.0004
241 0.0003
242 0.0003
243 0.0003
244 0.0003
245 0.0003
246 0.0002
247 0.0002
248 0.0002
249 0.0002
250 0.0002
251 0.0002
252 0.0001
253 0.0002
254 0.0002
255 0.0002
256 0.0002
257 0.0002
258 0.0002
259 0.0001
260 0.0001
261 0.0002
262 0.0002
263 0.0001
264 0.0001
265 0.0001
266 0.0001
267 0.0002
268 0.0002
269 0.0002
270 0.0002
271 0.0001
272 0.0001
273 0.0001
274 0.0001
275 0.0002
276 0.0002
277 0.0002
278 0.0002
279 0.0002
280 0.0001
281 0.0001
282 0.0001
283 0.0001
284 0.0001
285 0.0001
286 0.0001
287 0.0001
288 0.0001
289 0.0001
290 0.0000
291 0.0000
292 0.0000
293 0.0000
294 0.0000
295 0.0000
296 0.0000
297 0.0000
298 -0.0000
299 -0.0000
300 -0.0000
301 -0.0001
302 -0.0001
303 -0.0001
304 -0.0001
305 -0.0001
306 -0.0001
307 -0.0000
308 -0.0000
309 -0.0000
310 -0.0000
311 -0.0000
312 -0.0000
313 0.0000
314 0.0000
315 0.0000
316 0.0002
317 0.0005
318 0.0008
319 0.0007
320 0.0007
321 0.0007
322 0.0006
323 0.0006
324 0.0006
325 0.0006
326 0.0005
327 0.0005
328 0.0005
329 0.0005
330 0.0005
331 0.0004
332 0.0004
333 0.0004
334 0.0003
335 0.0003
336 0.0003
337 0.0003
338 0.0003
339 0.0003
340 0.0003
341 0.0003
342 0.0003
343 0.0003
344 0.0003
345 0.0002
346 0.0003
347 0.0002
348 0.0002
349 0.0002
350 0.0002
351 0.0001
352 0.0001
353 0.0001
354 0.0001
355 0.0001
356 0.0000
357 0.0000
358 0.0000
359 -0.0000
360 -0.0001
361 -0.0002
362 -0.0003
363 -0.0003
364 -0.0004
365 -0.0006
366 -0.0007
367 -0.0008
368 -0.0009
369 -0.0012
370 -0.0013
371 -0.0013
372 -0.0013
373 -0.0010
374 -0.0007
375 -0.0004
376 -0.0001
377 0.0002
378 0.0002
379 0.0002
380 0.0002
381 0.0001
382 0.0001
383 0.0001
384 0.0001
385 0.0001
386 0.0001
387 0.0001
388 0.0002
389 0.0001
390 0.0001
391 0.0001
392 0.0001
393 0.0002
394 0.0001
395 0.0001
396 0.0001
397 0.0001
398 0.0001
399 0.0001
400 0.0001
401 0.0001
402 0.0001
403 0.0001
404 0.0001
405 0.0001
406 0.0001
407 0.0001
408 0.0001
409 0.0001
410 0.0001
411 0.0001
412 0.0001
413 0.0001
414 0.0001
415 0.0001
416 0.0001
417 0.0001
418 0.0001
419 0.0001
420 0.0001
421 0.0001
422 0.0001
423 0.0001
424 0.0001
425 0.0001
426 0.0001
427 0.0001
428 0.0001
429 0.0001
430 0.0001
431 0.0001
432 0.0001
433 0.0001
434 0.0001
435 0.0001
436 0.0001
437 0.0001
438 0.0001
439 0.0001
440 0.0001
441 0.0001
442 0.0001
443 0.0002
444 0.0002
445 0.0002
446 0.0002
447 0.0002
448 0.0002
449 0.0001
450 0.0002
451 0.0001
452 0.0001
453 0.0001
454 0.0001
455 0.0001
456 0.0002
457 0.0002
458 0.0002
459 0.0002
460 0.0002
461 0.0002
462 0.0002
463 0.0002
464 0.0002
465 0.0003
466 0.0003
467 0.0003
468 0.0002
469 0.0002
470 0.0002
471 0.0002
472 0.0001
473 0.0001
474 0.0001
475 0.0000
476 0.0000
477 -0.0000
478 -0.0001
479 -0.0001
480 -0.0001
481 -0.0001
482 -0.0001
483 -0.0001
484 -0.0001
485 -0.0000
486 0.0000
487 0.0000
488 0.0000
489 0.0000
490 0.0000
491 0.0000
492 0.0001
493 0.0001
494 0.0001
495 0.0001
496 0.0002
497 0.0002
498 0.0002
499 0.0002
500 0.0002
501 0.0002
502 0.0002
503 0.0002
504 0.0002
505 0.0002
506 0.0002
507 0.0002
508 0.0002
509 0.0002
510 0.0002
511 0.0002
512 0.0001
513 0.0001
514 0.0001
515 0.0001
516 0.0001
517 0.0000
518 0.0000
519 0.0000
520 0.0000
521 0.0000
522 0.0000
523 0.0000
524 0.0000
525 0.0000
526 0.0000
527 0.0000
528 0.0000
529 0.0000
530 0.0000
531 0.0000
532 0.0000
533 0.0000
534 0.0000
535 0.0000
536 0.0000
537 0.0000
538 0.0000
539 0.0000
540 0.0000
541 0.0000
542 0.0000
543 0.0000
544 0.0000
545 0.0000
546 0.0000
547 0.0000
548 0.0000
549 0.0000
550 0.0000
551 0.0000
552 0.0000
553 -0.0000
554 -0.0000
555 -0.0001
556 -0.0001
557 -0.0001
558 -0.0001
559 -0.0001
560 -0.0000
561 0.0001
562 0.0001
563 0.0001
564 0.0001
565 0.0001
566 0.0001
567 0.0001
568 0.0001
569 0.0001
570 0.0001
571 0.0001
572 0.0001
573 0.0001
574 0.0001
575 0.0001
576 0.0001
577 0.0001
578 0.0001
579 0.0001
580 0.0001
581 0.0001
582 0.0001
583 0.0001
584 0.0001
585 0.0001
586 0.0001
587 0.0001
588 0.0001
589 0.0001
590 0.0001
591 0.0001
592 0.0001
593 0.0001
594 0.0001
595 0.0001
596 0.0001
597 0.0001
598 0.0001
599 0.0001
600 0.0001
601 0.0001
602 0.0001
603 0.0001
604 0.0001
605 0.0001
606 0.0001
607 0.0001
608 0.0001
609 0.0001
610 0.0001
611 0.0001
612 0.0001
613 0.0001
614 0.0001
615 0.0001
616 0.0001
617 0.0001
618 0.0001
619 0.0001
620 0.0001
621 0.0001
622 0.0001
623 0.0001
624 0.0001
625 0.0001
626 0.0001
627 0.0001
628 0.0001
629 0.0001
630 0.0001
631 0.0001
632 0.0000
633 0.0000
634 0.0000
635 0.0000
636 0.0000
637 0.0001
638 0.0001
639 0.0001
640 0.0001
641 0.0001
642 0.0001
643 0.0001
644 0.0001
645 0.0001
646 0.0001
647 0.0001
648 0.0001
649 0.0001
650 0.0001
651 0.0001
652 0.0001
653 0.0001
654 0.0001
655 0.0001
656 0.0000
657 0.0001
658 0.0000
659 0.0001
660 0.0001
661 0.0000
662 0.0001
663 0.0001
664 0.0001
665 0.0000
666 0.0000
667 0.0000
668 0.0001
669 0.0001
670 0.0001
671 0.0001
672 0.0001
673 0.0001
674 0.0001
675 0.0000
676 0.0001
677 0.0001
678 0.0000
679 0.0000
680 0.0000
681 -0.0000
682 -0.0000
683 -0.0001
684 -0.0001
685 -0.0001
686 -0.0002
687 -0.0002
688 -0.0001
689 0.0001
690 0.0001
691 0.0001
692 0.0001
693 0.0001
694 0.0001
695 0.0001
696 0.0001
697 0.0001
698 0.0001
699 0.0001
700 0.0000
701 0.0000
702 0.0000
703 0.0000
704 0.0000
705 0.0000
706 0.0000
707 0.0000
708 0.0000
709 0.0000
710 0.0000
711 0.0000
712 0.0000
713 0.0001
714 0.0000
715 0.0000
716 0.0000
717 0.0000
718 0.0000
719 0.0000
720 0.0000
721 0.0000
722 0.0000
723 0.0000
724 0.0000
725 0.0000
726 0.0000
727 0.0000
728 -0.0000
729 -0.0000
730 -0.0000
731 -0.0000
732 -0.0000
733 0.0000
734 0.0000
735 0.0000
736 0.0000
737 -0.0000
738 0.0000
739 0.0000
740 0.0000
741 0.0000
742 0.0000
743 0.0000
744 0.0000
745 0.0000
746 0.0000
747 -0.0000
748 -0.0000
749 -0.0001
750 -0.0001
751 -0.0001
752 -0.0001
753 -0.0001
754 -0.0001
755 -0.0001
756 -0.0000
757 0.0000
758 0.0000
759 -0.0000
760 -0.0001
761 -0.0001
762 -0.0001
763 -0.0001
764 -0.0001
765 -0.0001
766 -0.0001
767 -0.0001
768 -0.0001
769 -0.0001
770 -0.0001
771 -0.0001
772 -0.0000
773 -0.0000
774 -0.0000
775 -0.0000
776 0.0000
777 0.0000
778 0.0000
779 -0.0001
780 -0.0001
781 -0.0002
782 -0.0002
783 -0.0002
784 -0.0001
785 -0.0000
786 0.0000
787 0.0001
788 0.0001
789 0.0002
790 0.0001
791 0.0001
792 0.0001
793 -0.0000
794 -0.0001
795 -0.0001
796 -0.0001
797 -0.0000
798 -0.0000
799 -0.0000
800 -0.0000
801 -0.0000
802 -0.0000
803 0.0000
804 0.0000
805 0.0000
806 0.0000
807 0.0000
808 0.0001
809 0.0002
810 0.0002
811 0.0002
812 0.0002
813 0.0002
814 0.0002
815 0.0003
816 0.0004
817 0.0002
818 0.0001
819 0.0000
820 0.0001
821 0.0000
822 -0.0001
823 -0.0002
824 -0.0003
825 -0.0005
826 -0.0007
827 -0.0008
828 -0.0010
829 -0.0015
830 -0.0017
831 -0.0019
832 -0.0019
833 -0.0020
834 -0.0020
835 -0.0021
836 -0.0021
837 -0.0021
838 -0.0021
839 -0.0021
840 -0.0021
841 -0.0020
842 -0.0020
843 -0.0020
844 -0.0020
845 -0.0020
846 -0.0020
847 -0.0020
848 -0.0020
849 -0.0019
850 -0.0019
851 -0.0019
852 -0.0018
853 -0.0016
854 -0.0015
855 -0.0012
856 -0.0008
857 0.0002
858 0.0006
859 0.0001
860 -0.0007
861 -0.0008
862 -0.0008
863 -0.0007
864 -0.0007
865 -0.0006
866 -0.0006
867 -0.0007
868 -0.0006
869 -0.0004
870 -0.0004
871 -0.0002
872 -0.0002
873 -0.0003
874 -0.0002
875 -0.0002
876 0.0000
877 0.0003
878 0.0002
879 0.0001
880 0.0000
881 -0.0003
882 -0.0003
883 -0.0002
884 -0.0002
885 -0.0001
886 -0.0002
887 -0.0004
888 -0.0005
889 -0.0004
890 -0.0004
891 -0.0004
892 -0.0005
893 -0.0005
894 -0.0005
895 -0.0005
896 -0.0006
897 -0.0005
898 -0.0005
899 -0.0005
900 -0.0004
901 -0.0003
902 -0.0001
903 -0.0000
904 -0.0000
905 0.0000
906 -0.0001
907 -0.0001
908 -0.0001
909 -0.0005
910 -0.0005
911 -0.0003
912 -0.0003
913 -0.0001
914 -0.0001
915 -0.0001
916 -0.0001
917 0.0000
918 -0.0001
919 -0.0000
920 0.0000
921 -0.0001
922 0.0000
923 0.0000
924 -0.0001
925 0.0000
926 0.0001
927 0.0003
928 0.0004
929 0.0006
930 0.0007
931 0.0010
932 0.0010
933 0.0009
934 0.0009
935 0.0008
936 0.0009
937 0.0012
938 0.0012
939 0.0014
940 0.0015
941 0.0013
942 0.0015
943 0.0014
944 0.0013
945 0.0015
946 0.0016
947 0.0017
948 0.0017
949 0.0017
950 0.0017
951 0.0019
952 0.0020
953 0.0023
954 0.0024
955 0.0025
956 0.0027
957 0.0032
958 0.0033
959 0.0035
960 0.0037
961 0.0043
962 0.0048
963 0.0051
964 0.0053
965 0.0060
966 0.0064
967 0.0069
968 0.0074
969 0.0083
970 0.0088
971 0.0095
972 0.0100
973 0.0113
974 0.0119
975 0.0126
976 0.0134
977 0.0150
978 0.0158
979 0.0166
980 0.0174
981 0.0190
982 0.0201
983 0.0210
984 0.0221
985 0.0247
986 0.0260
987 0.0274
988 0.0289
989 0.0318
990 0.0333
991 0.0349
992 0.0364
993 0.0397
994 0.0415
995 0.0434
996 0.0454
997 0.0498
998 0.0520
999 0.0542
1000 0.0565
1001 0.0611
1002 0.0637
1003 0.0662
1004 0.0688
1005 0.0747
1006 0.0776
1007 0.0807
1008 0.0839
1009 0.0901
1010 0.0933
1011 0.0967
1012 0.1000
1013 0.1071
1014 0.1107
1015 0.1144
1016 0.1182
1017 0.1261
1018 0.1301
1019 0.1343
1020 0.1385
1021 0.1467
1022 0.1510
1023 0.1552
1024 0.1594
1025 0.1684
1026 0.1728
1027 0.1773
1028 0.1819
1029 0.1909
1030 0.1955
1031 0.2001
1032 0.2046
1033 0.2136
1034 0.2180
1035 0.2224
1036 0.2271
1037 0.2361
1038 0.2404
1039 0.2449
1040 0.2493
1041 0.2579
1042 0.2622
1043 0.2663
1044 0.2703
1045 0.2785
1046 0.2825
1047 0.2864
1048 0.2902
1049 0.2975
1050 0.3012
1051 0.3048
1052 0.3083
1053 0.3150
1054 0.3181
1055 0.3211
1056 0.3242
1057 0.3303
1058 0.3330
1059 0.3357
1060 0.3383
1061 0.3431
1062 0.3455
1063 0.3476
1064 0.3497
1065 0.3538
1066 0.3556
1067 0.3573
1068 0.3591
1069 0.3620
1070 0.3636
1071 0.3651
1072 0.3664
1073 0.3689
1074 0.3699
1075 0.3710
1076 0.3721
1077 0.3742
1078 0.3751
1079 0.3760
1080 0.3769
1081 0.3786
1082 0.3795
1083 0.3802
1084 0.3807
1085 0.3819
1086 0.3824
1087 0.3830
1088 0.3836
1089 0.3847
1090 0.3855
1091 0.3861
1092 0.3864
1093 0.3873
1094 0.3877
1095 0.3882
1096 0.3885
1097 0.3893
1098 0.3897
1099 0.3903
1100 0.3907
1101 0.3912
1102 0.3916
1103 0.3920
1104 0.3925
1105 0.3937
1106 0.3939
1107 0.3942
1108 0.3947
1109 0.3956
1110 0.3960
1111 0.3964
1112 0.3966
1113 0.3975
1114 0.3980
1115 0.3984
1116 0.3989
1117 0.3997
1118 0.4000
1119 0.4005
1120 0.4009
1121 0.4017
1122 0.4024
1123 0.4030
1124 0.4038
1125 0.4051
1126 0.4055
1127 0.4061
1128 0.4067
1129 0.4080
1130 0.4088
1131 0.4096
1132 0.4103
1133 0.4118
1134 0.4125
1135 0.4131
1136 0.4137
1137 0.4148
1138 0.4154
1139 0.4162
1140 0.4169
1141 0.4185
1142 0.4193
1143 0.4200
1144 0.4207
1145 0.4226
1146 0.4234
1147 0.4244
1148 0.4253
1149 0.4268
1150 0.4277
1151 0.4285
1152 0.4294
1153 0.4314
1154 0.4323
1155 0.4333
1156 0.4344
1157 0.4361
1158 0.4371
1159 0.4381
1160 0.4390
1161 0.4408
1162 0.4418
1163 0.4427
1164 0.4437
1165 0.4458
1166 0.4469
1167 0.4481
1168 0.4492
1169 0.4513
1170 0.4524
1171 0.4534
1172 0.4545
1173 0.4569
1174 0.4580
1175 0.4592
1176 0.4606
1177 0.4628
1178 0.4639
1179 0.4650
1180 0.4660
1181 0.4683
1182 0.4696
1183 0.4707
1184 0.4719
1185 0.4740
1186 0.4751
1187 0.4767
1188 0.4785
1189 0.4823
1190 0.4836
1191 0.4849
1192 0.4861
1193 0.4886
1194 0.4897
1195 0.4907
1196 0.4919
1197 0.4943
1198 0.4955
1199 0.4966
1200 0.4977
1201 0.5001
1202 0.5013
1203 0.5023
1204 0.5031
1205 0.5054
1206 0.5065
1207 0.5076
1208 0.5087
1209 0.5107
1210 0.5118
1211 0.5128
1212 0.5137
1213 0.5159
1214 0.5169
1215 0.5177
1216 0.5187
1217 0.5203
1218 0.5211
1219 0.5219
1220 0.5228
1221 0.5245
1222 0.5253
1223 0.5258
1224 0.5262
1225 0.5274
1226 0.5280
1227 0.5287
1228 0.5294
1229 0.5303
1230 0.5309
1231 0.5315
1232 0.5319
1233 0.5330
1234 0.5335
1235 0.5338
1236 0.5341
1237 0.5347
1238 0.5349
1239 0.5352
1240 0.5354
1241 0.5357
1242 0.5360
1243 0.5360
1244 0.5359
1245 0.5356
1246 0.5355
1247 0.5353
1248 0.5351
1249 0.5346
1250 0.5345
1251 0.5343
1252 0.5342
1253 0.5337
1254 0.5333
1255 0.5331
1256 0.5328
1257 0.5319
1258 0.5313
1259 0.5307
1260 0.5302
1261 0.5290
1262 0.5284
1263 0.5276
1264 0.5269
1265 0.5256
1266 0.5247
1267 0.5239
1268 0.5231
1269 0.5214
1270 0.5206
1271 0.5197
1272 0.5187
1273 0.5170
1274 0.5162
1275 0.5152
1276 0.5142
1277 0.5119
1278 0.5109
1279 0.5100
1280 0.5088
1281 0.5063
1282 0.5051
1283 0.5039
1284 0.5027
1285 0.5002
1286 0.4990
1287 0.4978
1288 0.4966
1289 0.4942
1290 0.4931
1291 0.4919
1292 0.4905
1293 0.4877
1294 0.4863
1295 0.4849
1296 0.4837
1297 0.4810
1298 0.4798
1299 0.4785
1300 0.4771
1301 0.4744
1302 0.4730
1303 0.4715
1304 0.4702
1305 0.4675
1306 0.4661
1307 0.4647
1308 0.4633
1309 0.4604
1310 0.4590
1311 0.4576
1312 0.4561
1313 0.4534
1314 0.4520
1315 0.4505
1316 0.4491
1317 0.4462
1318 0.4449
1319 0.4436
1320 0.4422
1321 0.4394
1322 0.4381
1323 0.4367
1324 0.4355
1325 0.4329
1326 0.4316
1327 0.4304
1328 0.4291
1329 0.4266
1330 0.4254
1331 0.4241
1332 0.4228
1333 0.4203
1334 0.4191
1335 0.4178
1336 0.4167
1337 0.4142
1338 0.4129
1339 0.4117
1340 0.4105
1341 0.4082
1342 0.4070
1343 0.4058
1344 0.4046
1345 0.4024
1346 0.4014
1347 0.4004
1348 0.3993
1349 0.3975
1350 0.3967
1351 0.3957
1352 0.3947
1353 0.3931
1354 0.3924
1355 0.3920
1356 0.3918
1357 0.3912
1358 0.3909
1359 0.3901
1360 0.3888
1361 0.3852
1362 0.3832
1363 0.3815
1364 0.3802
1365 0.3781
1366 0.3768
1367 0.3756
1368 0.3749
1369 0.3749
1370 0.3748
1371 0.3739
1372 0.3730
1373 0.3712
1374 0.3703
1375 0.3695
1376 0.3688
1377 0.3675
1378 0.3674
1379 0.3673
1380 0.3671
1381 0.3661
1382 0.3652
1383 0.3641
1384 0.3632
1385 0.3612
1386 0.3603
1387 0.3595
1388 0.3589
1389 0.3582
1390 0.3580
1391 0.3579
1392 0.3580
1393 0.3585
1394 0.3582
1395 0.3574
1396 0.3565
1397 0.3548
1398 0.3547
1399 0.3546
1400 0.3544
1401 0.3536
1402 0.3532
1403 0.3528
1404 0.3524
1405 0.3509
1406 0.3503
1407 0.3497
1408 0.3494
1409 0.3492
1410 0.3492
1411 0.3491
1412 0.3491
1413 0.3485
1414 0.3479
1415 0.3474
1416 0.3471
1417 0.3464
1418 0.3463
1419 0.3460
1420 0.3458
1421 0.3452
1422 0.3450
1423 0.3450
1424 0.3450
1425 0.3446
1426 0.3446
1427 0.3446
1428 0.3445
1429 0.3443
1430 0.3443
1431 0.3442
1432 0.3440
1433 0.3439
1434 0.3438
1435 0.3438
1436 0.3438
1437 0.3438
1438 0.3440
1439 0.3441
1440 0.3441
1441 0.3443
1442 0.3444
1443 0.3445
1444 0.3446
1445 0.3444
1446 0.3445
1447 0.3447
1448 0.3447
1449 0.3448
1450 0.3448
1451 0.3449
1452 0.3450
1453 0.3451
1454 0.3452
1455 0.3455
1456 0.3459
1457 0.3462
1458 0.3463
1459 0.3463
1460 0.3464
1461 0.3467
1462 0.3468
1463 0.3469
1464 0.3470
1465 0.3475
1466 0.3480
1467 0.3483
1468 0.3484
1469 0.3486
1470 0.3487
1471 0.3489
1472 0.3493
1473 0.3497
1474 0.3500
1475 0.3502
1476 0.3504
1477 0.3511
1478 0.3515
1479 0.3518
1480 0.3519
1481 0.3523
1482 0.3525
1483 0.3527
1484 0.3531
1485 0.3537
1486 0.3542
1487 0.3545
1488 0.3547
1489 0.3555
1490 0.3558
1491 0.3560
1492 0.3564
1493 0.3571
1494 0.3574
1495 0.3576
1496 0.3578
1497 0.3585
1498 0.3590
1499 0.3593
1500 0.3596
1501 0.3603
1502 0.3606
1503 0.3610
1504 0.3615
1505 0.3622
1506 0.3626
1507 0.3630
1508 0.3632
1509 0.3638
1510 0.3641
1511 0.3642
1512 0.3646
1513 0.3651
1514 0.3654
1515 0.3658
1516 0.3661
1517 0.3669
1518 0.3673
1519 0.3675
1520 0.3678
1521 0.3682
1522 0.3685
1523 0.3689
1524 0.3692
1525 0.3698
1526 0.3701
1527 0.3704
1528 0.3706
1529 0.3714
1530 0.3718
1531 0.3720
1532 0.3724
1533 0.3727
1534 0.3730
1535 0.3732
1536 0.3734
1537 0.3740
1538 0.3742
1539 0.3743
1540 0.3745
1541 0.3749
1542 0.3751
1543 0.3753
1544 0.3757
1545 0.3760
1546 0.3762
1547 0.3766
1548 0.3768
1549 0.3772
1550 0.3774
1551 0.3775
1552 0.3778
1553 0.3779
1554 0.3780
1555 0.3781
1556 0.3783
1557 0.3785
1558 0.3786
1559 0.3787
1560 0.3788
1561 0.3790
1562 0.3790
1563 0.3790
1564 0.3791
1565 0.3790
1566 0.3790
1567 0.3790
1568 0.3790
1569 0.3791
1570 0.3792
1571 0.3791
1572 0.3794
1573 0.3793
1574 0.3793
1575 0.3792
1576 0.3791
1577 0.3790
1578 0.3789
1579 0.3786
1580 0.3785
1581 0.3783
1582 0.3782
1583 0.3782
1584 0.3781
1585 0.3777
1586 0.3776
1587 0.3775
1588 0.3771
1589 0.3767
1590 0.3765
1591 0.3762
1592 0.3760
1593 0.3753
1594 0.3750
1595 0.3747
1596 0.3745
1597 0.3741
1598 0.3739
1599 0.3735
1600 0.3731
1601 0.3723
1602 0.3719
1603 0.3716
1604 0.3713
1605 0.3708
1606 0.3704
1607 0.3701
1608 0.3697
1609 0.3688
1610 0.3684
1611 0.3680
1612 0.3677
1613 0.3670
1614 0.3666
1615 0.3663
1616 0.3659
1617 0.3650
1618 0.3644
1619 0.3638
1620 0.3633
1621 0.3621
1622 0.3617
1623 0.3613
1624 0.3608
1625 0.3594
1626 0.3588
1627 0.3583
1628 0.3577
1629 0.3565
1630 0.3560
1631 0.3554
1632 0.3548
1633 0.3535
1634 0.3530
1635 0.3523
1636 0.3517
1637 0.3506
1638 0.3499
1639 0.3492
1640 0.3485
1641 0.3472
1642 0.3465
1643 0.3459
1644 0.3452
1645 0.3439
1646 0.3433
1647 0.3426
1648 0.3419
1649 0.3404
1650 0.3395
1651 0.3387
1652 0.3380
1653 0.3364
1654 0.3357
1655 0.3350
1656 0.3343
1657 0.3329
1658 0.3321
1659 0.3313
1660 0.3306
1661 0.3292
1662 0.3285
1663 0.3279
1664 0.3272
1665 0.3259
1666 0.3254
1667 0.3247
1668 0.3242
1669 0.3230
1670 0.3222
1671 0.3214
1672 0.3205
1673 0.3189
1674 0.3181
1675 0.3174
1676 0.3167
1677 0.3152
1678 0.3145
1679 0.3138
1680 0.3132
1681 0.3119
1682 0.3112
1683 0.3106
1684 0.3100
1685 0.3087
1686 0.3079
1687 0.3071
1688 0.3064
1689 0.3048
1690 0.3042
1691 0.3037
1692 0.3030
1693 0.3016
1694 0.3009
1695 0.3001
1696 0.2994
1697 0.2980
1698 0.2971
1699 0.2962
1700 0.2954
1701 0.2936
1702 0.2928
1703 0.2919
1704 0.2910
1705 0.2894
1706 0.2886
1707 0.2879
1708 0.2873
1709 0.2856
1710 0.2848
1711 0.2842
1712 0.2836
1713 0.2823
1714 0.2816
1715 0.2810
1716 0.2803
1717 0.2789
1718 0.2782
1719 0.2774
1720 0.2767
1721 0.2751
1722 0.2745
1723 0.2739
1724 0.2732
1725 0.2719
1726 0.2712
1727 0.2704
1728 0.2697
1729 0.2682
1730 0.2675
1731 0.2669
1732 0.2661
1733 0.2650
1734 0.2644
1735 0.2638
1736 0.2632
1737 0.2618
1738 0.2610
1739 0.2603
1740 0.2597
1741 0.2585
1742 0.2581
1743 0.2576
1744 0.2571
1745 0.2559
1746 0.2553
1747 0.2547
1748 0.2541
1749 0.2530
1750 0.2525
1751 0.2519
1752 0.2513
1753 0.2505
1754 0.2501
1755 0.2495
1756 0.2490
1757 0.2483
1758 0.2479
1759 0.2476
1760 0.2471
1761 0.2462
1762 0.2458
1763 0.2454
1764 0.2450
1765 0.2443
1766 0.2438
1767 0.2432
1768 0.2426
1769 0.2414
1770 0.2408
1771 0.2402
1772 0.2396
1773 0.2383
1774 0.2376
1775 0.2368
1776 0.2360
1777 0.2346
1778 0.2338
1779 0.2332
1780 0.2326
1781 0.2316
1782 0.2313
1783 0.2310
1784 0.2306
1785 0.2298
1786 0.2294
1787 0.2290
1788 0.2287
1789 0.2278
1790 0.2272
1791 0.2268
1792 0.2263
1793 0.2256
1794 0.2252
1795 0.2248
1796 0.2243
1797 0.2236
1798 0.2231
1799 0.2227
1800 0.2224
1801 0.2215
1802 0.2212
1803 0.2207
1804 0.2202
1805 0.2194
1806 0.2189
1807 0.2185
1808 0.2182
1809 0.2174
1810 0.2171
1811 0.2168
1812 0.2165
1813 0.2161
1814 0.2158
1815 0.2156
1816 0.2155
1817 0.2151
1818 0.2145
1819 0.2139
1820 0.2133
1821 0.2124
1822 0.2120
1823 0.2116
1824 0.2113
1825 0.2109
1826 0.2105
1827 0.2102
1828 0.2100
1829 0.2096
1830 0.2096
1831 0.2097
1832 0.2098
1833 0.2099
1834 0.2098
1835 0.2095
1836 0.2092
1837 0.2082
1838 0.2075
1839 0.2071
1840 0.2066
1841 0.2060
1842 0.2059
1843 0.2058
1844 0.2057
1845 0.2056
1846 0.2055
1847 0.2055
1848 0.2055
1849 0.2054
1850 0.2053
1851 0.2053
1852 0.2051
1853 0.2045
1854 0.2041
1855 0.2035
1856 0.2029
1857 0.2018
1858 0.2013
1859 0.2009
1860 0.2005
1861 0.1998
1862 0.1997
1863 0.1996
1864 0.1997
1865 0.2005
1866 0.2009
1867 0.2013
1868 0.2015
1869 0.2011
1870 0.2007
1871 0.2002
1872 0.1995
1873 0.1984
1874 0.1979
1875 0.1976
1876 0.1974
1877 0.1971
1878 0.1970
1879 0.1971
1880 0.1972
1881 0.1971
1882 0.1969
1883 0.1966
1884 0.1963
1885 0.1956
1886 0.1953
1887 0.1951
1888 0.1950
1889 0.1943
1890 0.1940
1891 0.1937
1892 0.1933
1893 0.1929
1894 0.1927
1895 0.1927
1896 0.1927
1897 0.1926
1898 0.1925
1899 0.1927
1900 0.1928
1901 0.1932
1902 0.1933
1903 0.1933
1904 0.1931
1905 0.1927
1906 0.1922
1907 0.1919
1908 0.1916
1909 0.1910
1910 0.1908
1911 0.1906
1912 0.1903
1913 0.1897
1914 0.1893
1915 0.1890
1916 0.1889
1917 0.1887
1918 0.1887
1919 0.1890
1920 0.1892
1921 0.1898
1922 0.1901
1923 0.1903
1924 0.1906
1925 0.1911
1926 0.1911
1927 0.1911
1928 0.1910
1929 0.1907
1930 0.1908
1931 0.1908
1932 0.1909
1933 0.1912
1934 0.1912
1935 0.1912
1936 0.1912
1937 0.1912
1938 0.1910
1939 0.1910
1940 0.1910
1941 0.1910
1942 0.1910
1943 0.1909
1944 0.1909
1945 0.1911
1946 0.1911
1947 0.1913
1948 0.1913
1949 0.1914
1950 0.1915
1951 0.1915
1952 0.1915
1953 0.1916
1954 0.1916
1955 0.1916
1956 0.1917
1957 0.1916
1958 0.1917
1959 0.1919
1960 0.1919
1961 0.1919
1962 0.1918
1963 0.1917
1964 0.1917
1965 0.1918
1966 0.1917
1967 0.1919
1968 0.1920
1969 0.1921
1970 0.1922
1971 0.1922
1972 0.1921
1973 0.1923
1974 0.1923
1975 0.1924
1976 0.1926
1977 0.1927
1978 0.1927
1979 0.1929
1980 0.1929
1981 0.1933
1982 0.1935
1983 0.1937
1984 0.1938
1985 0.1939
1986 0.1940
1987 0.1941
1988 0.1940
1989 0.1938
1990 0.1936
1991 0.1934
1992 0.1933
1993 0.1932
1994 0.1930
1995 0.1930
1996 0.1931
1997 0.1929
1998 0.1929
1999 0.1930
2000 0.1929
2001 0.1930
2002 0.1931
2003 0.1932
2004 0.1934
2005 0.1937
2006 0.1938
2007 0.1939
2008 0.1939
2009 0.1941
2010 0.1941
2011 0.1942
2012 0.1944
2013 0.1944
2014 0.1943
2015 0.1943
2016 0.1944
2017 0.1944
2018 0.1944
2019 0.1946
2020 0.1945
2021 0.1946
2022 0.1947
2023 0.1948
2024 0.1949
2025 0.1950
2026 0.1951
2027 0.1953
2028 0.1953
2029 0.1954
2030 0.1956
2031 0.1957
2032 0.1959
2033 0.1960
2034 0.1961
2035 0.1963
2036 0.1964
2037 0.1965
2038 0.1967
2039 0.1967
2040 0.1967
2041 0.1968
2042 0.1969
2043 0.1970
2044 0.1971
2045 0.1973
2046 0.1973
2047 0.1975
2048 0.1975
2049 0.1977
2050 0.1979
2051 0.1979
2052 0.1978
2053 0.1980
2054 0.1980
2055 0.1981
2056 0.1983
2057 0.1985
2058 0.1986
2059 0.1988
2060 0.1989
2061 0.1992
2062 0.1992
2063 0.1992
2064 0.1993
2065 0.1996
2066 0.1996
2067 0.1997
2068 0.1997
2069 0.1999
2070 0.2000
2071 0.2001
2072 0.2001
2073 0.2003
2074 0.2003
2075 0.2004
2076 0.2006
2077 0.2007
2078 0.2009
2079 0.2009
2080 0.2010
2081 0.2012
2082 0.2012
2083 0.2013
2084 0.2013
2085 0.2014
2086 0.2015
2087 0.2016
2088 0.2017
2089 0.2019
2090 0.2021
2091 0.2022
2092 0.2023
2093 0.2027
2094 0.2027
2095 0.2029
2096 0.2030
2097 0.2031
2098 0.2032
2099 0.2031
2100 0.2031
2101 0.2032
2102 0.2033
2103 0.2034
2104 0.2035
2105 0.2037
2106 0.2037
2107 0.2038
2108 0.2039
2109 0.2040
2110 0.2040
2111 0.2040
2112 0.2041
2113 0.2043
2114 0.2044
2115 0.2046
2116 0.2047
2117 0.2048
2118 0.2048
2119 0.2047
2120 0.2046
2121 0.2047
2122 0.2048
2123 0.2049
2124 0.2049
2125 0.2050
2126 0.2050
2127 0.2051
2128 0.2051
2129 0.2052
2130 0.2053
2131 0.2053
2132 0.2055
2133 0.2057
2134 0.2057
2135 0.2059
2136 0.2060
2137 0.2062
2138 0.2061
2139 0.2061
2140 0.2061
2141 0.2061
2142 0.2060
2143 0.2059
2144 0.2059
2145 0.2056
2146 0.2055
2147 0.2054
2148 0.2052
2149 0.2051
2150 0.2052
2151 0.2052
2152 0.2054
2153 0.2057
2154 0.2057
2155 0.2059
2156 0.2061
2157 0.2066
2158 0.2069
2159 0.2071
2160 0.2072
2161 0.2076
2162 0.2077
2163 0.2077
2164 0.2077
2165 0.2075
2166 0.2075
2167 0.2075
2168 0.2073
2169 0.2072
2170 0.2072
2171 0.2071
2172 0.2071
2173 0.2072
2174 0.2072
2175 0.2073
2176 0.2072
2177 0.2071
2178 0.2071
2179 0.2070
2180 0.2070
2181 0.2072
2182 0.2072
2183 0.2073
2184 0.2073
2185 0.2071
2186 0.2071
2187 0.2071
2188 0.2070
2189 0.2069
2190 0.2068
2191 0.2068
2192 0.2068
2193 0.2069
2194 0.2068
2195 0.2069
2196 0.2069
2197 0.2067
2198 0.2067
2199 0.2067
2200 0.2068
2201 0.2069
2202 0.2069
2203 0.2069
2204 0.2067
2205 0.2066
2206 0.2065
2207 0.2065
2208 0.2065
2209 0.2064
2210 0.2064
2211 0.2063
2212 0.2063
2213 0.2062
2214 0.2061
2215 0.2061
2216 0.2061
2217 0.2058
2218 0.2057
2219 0.2056
2220 0.2054
2221 0.2054
2222 0.2054
2223 0.2054
2224 0.2054
2225 0.2053
2226 0.2054
2227 0.2054
2228 0.2053
2229 0.2051
2230 0.2050
2231 0.2048
2232 0.2048
2233 0.2045
2234 0.2045
2235 0.2046
2236 0.2045
2237 0.2044
2238 0.2042
2239 0.2038
2240 0.2036
2241 0.2033
2242 0.2031
2243 0.2029
2244 0.2028
2245 0.2024
2246 0.2022
2247 0.2022
2248 0.2021
2249 0.2020
2250 0.2018
2251 0.2016
2252 0.2014
2253 0.2011
2254 0.2009
2255 0.2009
2256 0.2007
2257 0.2005
2258 0.2004
2259 0.2001
2260 0.1999
2261 0.1997
2262 0.1996
2263 0.1996
2264 0.1994
2265 0.1992
2266 0.1991
2267 0.1990
2268 0.1988
2269 0.1986
2270 0.1984
2271 0.1982
2272 0.1981
2273 0.1979
2274 0.1978
2275 0.1977
2276 0.1976
2277 0.1975
2278 0.1974
2279 0.1972
2280 0.1971
2281 0.1968
2282 0.1965
2283 0.1965
2284 0.1963
2285 0.1961
2286 0.1960
2287 0.1958
2288 0.1954
2289 0.1949
2290 0.1948
2291 0.1946
2292 0.1945
2293 0.1942
2294 0.1941
2295 0.1940
2296 0.1938
2297 0.1936
2298 0.1936
2299 0.1935
2300 0.1935
2301 0.1934
2302 0.1932
2303 0.1932
2304 0.1933
2305 0.1932
2306 0.1933
2307 0.1933
2308 0.1931
2309 0.1930
2310 0.1928
2311 0.1928
2312 0.1929
2313 0.1928
2314 0.1929
2315 0.1929
2316 0.1928
2317 0.1926
2318 0.1924
2319 0.1921
2320 0.1919
2321 0.1914
2322 0.1910
2323 0.1907
2324 0.1904
2325 0.1900
2326 0.1898
2327 0.1896
2328 0.1892
2329 0.1886
2330 0.1884
2331 0.1882
2332 0.1880
2333 0.1877
2334 0.1875
2335 0.1874
2336 0.1874
2337 0.1872
2338 0.1870
2339 0.1866
2340 0.1864
2341 0.1860
2342 0.1857
2343 0.1856
2344 0.1853
2345 0.1850
2346 0.1850
2347 0.1849
2348 0.1847
2349 0.1845
2350 0.1842
2351 0.1840
2352 0.1837
2353 0.1834
2354 0.1833
2355 0.1831
2356 0.1829
2357 0.1825
2358 0.1824
2359 0.1822
2360 0.1821
2361 0.1817
2362 0.1815
2363 0.1814
2364 0.1812
2365 0.1806
2366 0.1806
2367 0.1804
2368 0.1802
2369 0.1801
2370 0.1797
2371 0.1795
2372 0.1793
2373 0.1788
2374 0.1786
2375 0.1784
2376 0.1782
2377 0.1778
2378 0.1775
2379 0.1773
2380 0.1771
2381 0.1768
2382 0.1765
2383 0.1764
2384 0.1763
2385 0.1760
2386 0.1758
2387 0.1756
2388 0.1754
2389 0.1752
2390 0.1750
2391 0.1748
2392 0.1747
2393 0.1743
2394 0.1742
2395 0.1740
2396 0.1737
2397 0.1732
2398 0.1728
2399 0.1724
2400 0.1722
2401 0.1717
2402 0.1715
2403 0.1715
2404 0.1713
2405 0.1710
2406 0.1709
2407 0.1707
2408 0.1704
2409 0.1700
2410 0.1697
2411 0.1694
2412 0.1690
2413 0.1682
2414 0.1678
2415 0.1675
2416 0.1672
2417 0.1668
2418 0.1665
2419 0.1661
2420 0.1657
2421 0.1648
2422 0.1644
2423 0.1641
2424 0.1636
2425 0.1623
2426 0.1617
2427 0.1608
2428 0.1600
2429 0.1582
2430 0.1572
2431 0.1565
2432 0.1560
2433 0.1558
2434 0.1558
2435 0.1558
2436 0.1557
2437 0.1556
2438 0.1555
2439 0.1555
2440 0.1556
2441 0.1557
2442 0.1558
2443 0.1560
2444 0.1562
2445 0.1565
2446 0.1567
2447 0.1568
2448 0.1570
2449 0.1577
2450 0.1580
2451 0.1584
2452 0.1588
2453 0.1592
2454 0.1597
2455 0.1600
2456 0.1602
2457 0.1606
2458 0.1606
2459 0.1607
2460 0.1609
2461 0.1607
2462 0.1605
2463 0.1603
2464 0.1601
2465 0.1598
2466 0.1596
2467 0.1591
2468 0.1586
2469 0.1576
2470 0.1571
2471 0.1566
2472 0.1561
2473 0.1551
2474 0.1548
2475 0.1545
2476 0.1541
2477 0.1536
2478 0.1531
2479 0.1529
2480 0.1527
2481 0.1521
2482 0.1519
2483 0.1518
2484 0.1515
2485 0.1514
2486 0.1513
2487 0.1511
2488 0.1509
2489 0.1508
2490 0.1508
2491 0.1508
2492 0.1508
2493 0.1505
2494 0.1504
2495 0.1504
2496 0.1503
2497 0.1502
2498 0.1500
2499 0.1499
2500 0.1500
2501 0.1498
2502 0.1498
2503 0.1498
2504 0.1497
2505 0.1497
2506 0.1498
2507 0.1498
2508 0.1498
2509 0.1493
2510 0.1489
2511 0.1487
2512 0.1485
2513 0.1481
2514 0.1481
2515 0.1480
2516 0.1478
2517 0.1478
2518 0.1475
2519 0.1473
2520 0.1470
2521 0.1462
2522 0.1458
2523 0.1455
2524 0.1453
2525 0.1451
2526 0.1448
2527 0.1445
2528 0.1442
2529 0.1435
2530 0.1431
2531 0.1429
2532 0.1427
2533 0.1422
2534 0.1421
2535 0.1419
2536 0.1417
2537 0.1414
2538 0.1410
2539 0.1408
2540 0.1406
2541 0.1400
2542 0.1399
2543 0.1396
2544 0.1392
2545 0.1389
2546 0.1387
2547 0.1386
2548 0.1386
2549 0.1388
2550 0.1388
2551 0.1390
2552 0.1391
2553 0.1392
2554 0.1394
2555 0.1394
2556 0.1393
2557 0.1396
2558 0.1393
2559 0.1393
2560 0.1394
2561 0.1395
2562 0.1397
2563 0.1398
2564 0.1399
2565 0.1404
2566 0.1404
2567 0.1403
2568 0.1404
2569 0.1406
2570 0.1407
2571 0.1410
2572 0.1411
2573 0.1416
2574 0.1419
2575 0.1421
2576 0.1425
2577 0.1433
2578 0.1433
2579 0.1434
2580 0.1436
2581 0.1440
2582 0.1443
2583 0.1443
2584 0.1442
2585 0.1444
2586 0.1443
2587 0.1443
2588 0.1445
2589 0.1443
2590 0.1442
2591 0.1444
2592 0.1443
2593 0.1444
2594 0.1445
2595 0.1443
2596 0.1440
2597 0.1439
2598 0.1437
2599 0.1436
2600 0.1433
2601 0.1422
2602 0.1420
2603 0.1417
2604 0.1415
2605 0.1414
2606 0.1414
2607 0.1414
2608 0.1414
2609 0.1409
2610 0.1409
2611 0.1409
2612 0.1406
2613 0.1401
2614 0.1399
2615 0.1395
2616 0.1392
2617 0.1388
2618 0.1383
2619 0.1381
2620 0.1380
2621 0.1385
2622 0.1387
2623 0.1387
2624 0.1389
2625 0.1389
2626 0.1388
2627 0.1390
2628 0.1390
2629 0.1387
2630 0.1387
2631 0.1385
2632 0.1383
2633 0.1382
2634 0.1379
2635 0.1376
2636 0.1372
2637 0.1363
2638 0.1360
2639 0.1357
2640 0.1353
2641 0.1348
2642 0.1346
2643 0.1344
2644 0.1342
2645 0.1338
2646 0.1334
2647 0.1332
2648 0.1329
2649 0.1319
2650 0.1316
2651 0.1311
2652 0.1307
2653 0.1301
2654 0.1297
2655 0.1294
2656 0.1292
2657 0.1287
2658 0.1287
2659 0.1288
2660 0.1287
2661 0.1291
2662 0.1292
2663 0.1294
2664 0.1298
2665 0.1306
2666 0.1311
2667 0.1316
2668 0.1321
2669 0.1328
2670 0.1333
2671 0.1337
2672 0.1341
2673 0.1353
2674 0.1354
2675 0.1354
2676 0.1354
2677 0.1351
2678 0.1351
2679 0.1351
2680 0.1349
2681 0.1349
2682 0.1346
2683 0.1344
2684 0.1343
2685 0.1344
2686 0.1344
2687 0.1345
2688 0.1344
2689 0.1342
2690 0.1342
2691 0.1341
2692 0.1338
2693 0.1329
2694 0.1322
2695 0.1317
2696 0.1312
2697 0.1302
2698 0.1299
2699 0.1296
2700 0.1294
2701 0.1290
2702 0.1287
2703 0.1284
2704 0.1283
2705 0.1281
2706 0.1280
2707 0.1280
2708 0.1278
2709 0.1278
2710 0.1280
2711 0.1282
2712 0.1285
2713 0.1294
2714 0.1299
2715 0.1306
2716 0.1313
2717 0.1326
2718 0.1333
2719 0.1338
2720 0.1339
2721 0.1336
2722 0.1329
2723 0.1321
2724 0.1313
2725 0.1294
2726 0.1286
2727 0.1279
2728 0.1273
2729 0.1266
2730 0.1266
2731 0.1268
2732 0.1271
2733 0.1279
2734 0.1283
2735 0.1289
2736 0.1295
2737 0.1298
2738 0.1296
2739 0.1292
2740 0.1285
2741 0.1273
2742 0.1266
2743 0.1260
2744 0.1255
2745 0.1248
2746 0.1245
2747 0.1244
2748 0.1240
2749 0.1236
2750 0.1235
2751 0.1234
2752 0.1234
2753 0.1235
2754 0.1236
2755 0.1239
2756 0.1241
2757 0.1243
2758 0.1246
2759 0.1246
2760 0.1246
2761 0.1249
2762 0.1249
2763 0.1249
2764 0.1249
2765 0.1246
2766 0.1244
2767 0.1243
2768 0.1241
2769 0.1235
2770 0.1234
2771 0.1231
2772 0.1230
2773 0.1231
2774 0.1231
2775 0.1233
2776 0.1234
2777 0.1235
2778 0.1236
2779 0.1237
2780 0.1237
2781 0.1238
2782 0.1236
2783 0.1233
2784 0.1230
2785 0.1221
2786 0.1219
2787 0.1217
2788 0.1212
2789 0.1204
2790 0.1201
2791 0.1198
2792 0.1196
2793 0.1193
2794 0.1192
2795 0.1192
2796 0.1191
2797 0.1189
2798 0.1188
2799 0.1186
2800 0.1182
2801 0.1179
2802 0.1177
2803 0.1175
2804 0.1174
2805 0.1171
2806 0.1171
2807 0.1171
2808 0.1168
2809 0.1164
2810 0.1162
2811 0.1158
2812 0.1156
2813 0.1148
2814 0.1143
2815 0.1140
2816 0.1137
2817 0.1130
2818 0.1126
2819 0.1120
2820 0.1114
2821 0.1106
2822 0.1100
2823 0.1094
2824 0.1087
2825 0.1070
2826 0.1064
2827 0.1059
2828 0.1056
2829 0.1054
2830 0.1053
2831 0.1052
2832 0.1052
2833 0.1049
2834 0.1046
2835 0.1047
2836 0.1047
2837 0.1046
2838 0.1045
2839 0.1043
2840 0.1040
2841 0.1038
2842 0.1034
2843 0.1033
2844 0.1032
2845 0.1028
2846 0.1028
2847 0.1027
2848 0.1026
2849 0.1025
2850 0.1025
2851 0.1024
2852 0.1025
2853 0.1024
2854 0.1023
2855 0.1022
2856 0.1021
2857 0.1018
2858 0.1018
2859 0.1015
2860 0.1012
2861 0.1011
2862 0.1009
2863 0.1009
2864 0.1009
2865 0.1006
2866 0.1007
2867 0.1007
2868 0.1007
2869 0.1006
2870 0.1003
2871 0.1000
2872 0.0999
2873 0.0998
2874 0.0998
2875 0.0999
2876 0.0999
2877 0.0999
2878 0.0998
2879 0.0994
2880 0.0991
2881 0.0991
2882 0.0989
2883 0.0989
2884 0.0989
2885 0.0986
2886 0.0988
2887 0.0988
2888 0.0987
2889 0.0988
2890 0.0988
2891 0.0989
2892 0.0990
2893 0.0988
2894 0.0987
2895 0.0988
2896 0.0987
2897 0.0988
2898 0.0990
2899 0.0988
2900 0.0987
2901 0.0991
2902 0.0991
2903 0.0992
2904 0.0991
2905 0.0988
2906 0.0991
2907 0.0990
2908 0.0987
2909 0.0986
2910 0.0984
2911 0.0984
2912 0.0985
2913 0.0980
2914 0.0981
2915 0.0983
2916 0.0983
2917 0.0983
2918 0.0983
2919 0.0978
2920 0.0976
2921 0.0977
2922 0.0973
2923 0.0973
2924 0.0973
2925 0.0969
2926 0.0972
2927 0.0971
2928 0.0969
2929 0.0975
2930 0.0975
2931 0.0975
2932 0.0977
2933 0.0975
2934 0.0978
2935 0.0981
2936 0.0981
2937 0.0987
2938 0.0989
2939 0.0985
2940 0.0981
2941 0.0981
2942 0.0978
2943 0.0980
2944 0.0983
2945 0.0982
2946 0.0986
2947 0.0985
2948 0.0980
2949 0.0978
2950 0.0973
2951 0.0969
2952 0.0970
2953 0.0965
2954 0.0970
2955 0.0973
2956 0.0971
2957 0.0971
2958 0.0974
2959 0.0972
2960 0.0973
2961 0.0976
2962 0.0977
2963 0.0981
2964 0.0984
2965 0.0989
2966 0.0993
2967 0.0988
2968 0.0983
2969 0.0985
2970 0.0980
2971 0.0978
2972 0.0978
2973 0.0977
2974 0.0982
2975 0.0986
2976 0.0985
2977 0.0983
2978 0.0982
2979 0.0975
2980 0.0975
2981 0.0977
2982 0.0973
2983 0.0975
2984 0.0977
2985 0.0977
2986 0.0983
2987 0.0977
2988 0.0968
2989 0.0968
2990 0.0969
2991 0.0972
2992 0.0978
2993 0.0979
2994 0.0987
2995 0.0992
2996 0.0991
2997 0.0990
2998 0.0986
2999 0.0980
3000 0.0981
3001 0.0980
3002 0.0978
3003 0.0979
3004 0.0975
3005 0.0966
3006 0.0968
3007 0.0967
3008 0.0963
3009 0.0970
3010 0.0975
3011 0.0983
3012 0.0987
3013 0.0972
3014 0.0976
3015 0.0976
3016 0.0970
3017 0.0977
3018 0.0978
3019 0.0977
3020 0.0977
3021 0.0976
3022 0.0972
3023 0.0975
3024 0.0973
3025 0.0965
3026 0.0969
3027 0.0963
3028 0.0954
3029 0.0958
3030 0.0960
3031 0.0969
3032 0.0979
3033 0.0983
3034 0.0996
3035 0.0998
3036 0.0995
3037 0.0994
3038 0.0985
3039 0.0977
3040 0.0979
3041 0.0979
3042 0.0977
3043 0.0983
3044 0.0984
3045 0.0976
3046 0.0976
3047 0.0966
3048 0.0955
3049 0.0967
3050 0.0964
3051 0.0970
3052 0.0976
3053 0.0965
3054 0.0983
3055 0.0991
3056 0.0988
3057 0.0995
3058 0.0985
3059 0.0973
3060 0.0974
3061 0.0979
3062 0.0977
3063 0.0984
3064 0.0986
3065 0.0993
3066 0.0997
3067 0.0991
3068 0.0988
3069 0.0999
3070 0.0991
3071 0.0989
3072 0.0988
3073 0.0973
3074 0.0990
3075 0.1003
3076 0.1006
3077 0.1029
3078 0.1029
3079 0.1026
3080 0.1031
3081 0.1016
3082 0.1007
3083 0.1009
3084 0.1005
3085 0.1006
3086 0.1011
3087 0.0995
3088 0.0983
3089 0.0986
3090 0.0976
3091 0.0976
3092 0.0976
3093 0.0971
3094 0.1001
3095 0.1004
3096 0.0992
3097 0.1010
3098 0.1009
3099 0.1007
3100 0.1020
3101 0.1025
3102 0.1027
3103 0.1033
3104 0.1034
3105 0.1040
3106 0.1040
3107 0.1023
3108 0.1007
3109 0.1004
3110 0.0997
3111 0.1002
3112 0.1005
3113 0.1004
3114 0.1026
3115 0.1021
3116 0.1020
3117 0.1045
3118 0.1039
3119 0.1041
3120 0.1055
3121 0.1051
3122 0.1060
3123 0.1064
3124 0.1043
3125 0.1022
3126 0.1030
3127 0.1030
3128 0.1044
3129 0.1052
3130 0.1042
3131 0.1049
3132 0.1053
3133 0.1058
3134 0.1081
3135 0.1083
3136 0.1071
3137 0.1083
3138 0.1069
3139 0.1069
3140 0.1085
3141 0.1065
3142 0.1075
3143 0.1072
3144 0.1062
3145 0.1102
3146 0.1101
3147 0.1088
3148 0.1088
3149 0.1080
3150 0.1069
3151 0.1082
3152 0.1090
3153 0.1083
3154 0.1094
3155 0.1078
3156 0.1081
3157 0.1098
3158 0.1079
3159 0.1075
3160 0.1094
3161 0.1086
3162 0.1111
3163 0.1123
3164 0.1107
3165 0.1122
3166 0.1130
3167 0.1131
3168 0.1138
3169 0.1139
3170 0.1132
3171 0.1142
3172 0.1138
3173 0.1123
3174 0.1142
3175 0.1135
3176 0.1137
3177 0.1160
3178 0.1134
3179 0.1135
3180 0.1151
3181 0.1122
3182 0.1152
3183 0.1158
3184 0.1148
3185 0.1164
3186 0.1173
3187 0.1172
3188 0.1180
3189 0.1177
3190 0.1189
3191 0.1213
3192 0.1207
3193 0.1191
3194 0.1213
3195 0.1207
3196 0.1207
3197 0.1222
3198 0.1211
3199 0.1192
3200 0.1205
##END=
