##TITLE= Spolyc
##JCAMP-DX= 4.24
##DATA TYPE= ULTRAVIOLET SPECTRUM
##SAMPLE DESCRIPTION= $$
$$         12:49:17    24/03/27
##SPECTROMETER/DATA SYSTEM= Perkin-Elmer Lambda Series / PECSS
##DATE= 24/03/27
##XUNITS= NANOMETERS
##YUNITS= TRANSMITTANCE
##MAXY= 0.9082
##MINY= 0.0002
##XFACTOR= 1.00
##YFACTOR= 1.0000
##FIRSTX= 200.0
##LASTX= 3200.0
##NPOINTS= 3001
##FIRSTY= 0.0732
##XYDATA= (XY..XY)
200 0.0732
201 0.0513
202 0.0434
203 0.0366
204 0.0308
205 0.0227
206 0.0195
207 0.0170
208 0.0149
209 0.0115
210 0.0100
211 0.0087
212 0.0076
213 0.0059
214 0.0052
215 0.0047
216 0.0042
217 0.0035
218 0.0032
219 0.0029
220 0.0027
221 0.0022
222 0.0020
223 0.0018
224 0.0016
225 0.0013
226 0.0012
227 0.0011
228 0.0010
229 0.0009
230 0.0009
231 0.0008
232 0.0008
233 0.0007
234 0.0006
235 0.0006
236 0.0005
237 0.0005
238 0.0005
239 0.0004
240 0.0004
241 0.0004
242 0.0004
243 0.0003
244 0.0003
245 0.0002
246 0.0002
247 0.0002
248 0.0002
249 0.0002
250 0.0002
251 0.0002
252 0.0002
253 0.0002
254 0.0002
255 0.0002
256 0.0002
257 0.0002
258 0.0002
259 0.0002
260 0.0002
261 0.0002
262 0.0002
263 0.0002
264 0.0002
265 0.0002
266 0.0002
267 0.0002
268 0.0002
269 0.0002
270 0.0002
271 0.0002
272 0.0003
273 0.0003
274 0.0003
275 0.0003
276 0.0004
277 0.0006
278 0.0007
279 0.0010
280 0.0016
281 0.0035
282 0.0054
283 0.0080
284 0.0118
285 0.0238
286 0.0326
287 0.0435
288 0.0567
289 0.0903
290 0.1115
291 0.1368
292 0.1668
293 0.2421
294 0.2852
295 0.3296
296 0.3724
297 0.4456
298 0.4745
299 0.4975
300 0.5152
301 0.5404
302 0.5484
303 0.5546
304 0.5601
305 0.5688
306 0.5734
307 0.5786
308 0.5836
309 0.5955
310 0.6020
311 0.6078
312 0.6138
313 0.6245
314 0.6286
315 0.6332
316 0.6380
317 0.6458
318 0.6499
319 0.6538
320 0.6578
321 0.6648
322 0.6680
323 0.6719
324 0.6765
325 0.6871
326 0.6926
327 0.6986
328 0.7047
329 0.7157
330 0.7210
331 0.7259
332 0.7301
333 0.7376
334 0.7409
335 0.7443
336 0.7478
337 0.7546
338 0.7579
339 0.7610
340 0.7639
341 0.7690
342 0.7718
343 0.7744
344 0.7772
345 0.7830
346 0.7859
347 0.7887
348 0.7917
349 0.7966
350 0.7991
351 0.8019
352 0.8045
353 0.8097
354 0.8127
355 0.8153
356 0.8175
357 0.8219
358 0.8240
359 0.8260
360 0.8278
361 0.8313
362 0.8330
363 0.8344
364 0.8358
365 0.8380
366 0.8391
367 0.8405
368 0.8419
369 0.8448
370 0.8463
371 0.8478
372 0.8493
373 0.8517
374 0.8526
375 0.8531
376 0.8539
377 0.8559
378 0.8572
379 0.8580
380 0.8586
381 0.8600
382 0.8605
383 0.8607
384 0.8611
385 0.8619
386 0.8625
387 0.8630
388 0.8637
389 0.8649
390 0.8653
391 0.8660
392 0.8669
393 0.8680
394 0.8683
395 0.8685
396 0.8687
397 0.8692
398 0.8693
399 0.8696
400 0.8701
401 0.8711
402 0.8714
403 0.8717
404 0.8721
405 0.8730
406 0.8735
407 0.8741
408 0.8745
409 0.8745
410 0.8749
411 0.8752
412 0.8753
413 0.8758
414 0.8760
415 0.8762
416 0.8763
417 0.8766
418 0.8772
419 0.8775
420 0.8779
421 0.8786
422 0.8790
423 0.8793
424 0.8795
425 0.8797
426 0.8800
427 0.8802
428 0.8804
429 0.8805
430 0.8806
431 0.8806
432 0.8808
433 0.8818
434 0.8819
435 0.8820
436 0.8823
437 0.8825
438 0.8825
439 0.8824
440 0.8824
441 0.8827
442 0.8826
443 0.8825
444 0.8826
445 0.8833
446 0.8839
447 0.8840
448 0.8839
449 0.8839
450 0.8839
451 0.8839
452 0.8840
453 0.8840
454 0.8841
455 0.8843
456 0.8845
457 0.8848
458 0.8849
459 0.8850
460 0.8850
461 0.8852
462 0.8853
463 0.8853
464 0.8857
465 0.8858
466 0.8859
467 0.8860
468 0.8859
469 0.8862
470 0.8863
471 0.8865
472 0.8867
473 0.8867
474 0.8867
475 0.8869
476 0.8870
477 0.8873
478 0.8875
479 0.8872
480 0.8872
481 0.8878
482 0.8880
483 0.8883
484 0.8885
485 0.8882
486 0.8881
487 0.8879
488 0.8877
489 0.8880
490 0.8879
491 0.8878
492 0.8880
493 0.8883
494 0.8883
495 0.8884
496 0.8882
497 0.8881
498 0.8884
499 0.8885
500 0.8888
501 0.8890
502 0.8889
503 0.8890
504 0.8889
505 0.8887
506 0.8889
507 0.8890
508 0.8890
509 0.8893
510 0.8893
511 0.8892
512 0.8894
513 0.8896
514 0.8896
515 0.8896
516 0.8898
517 0.8901
518 0.8903
519 0.8900
520 0.8899
521 0.8901
522 0.8902
523 0.8904
524 0.8906
525 0.8904
526 0.8906
527 0.8908
528 0.8906
529 0.8904
530 0.8903
531 0.8902
532 0.8904
533 0.8902
534 0.8902
535 0.8902
536 0.8903
537 0.8905
538 0.8905
539 0.8905
540 0.8906
541 0.8903
542 0.8901
543 0.8903
544 0.8905
545 0.8909
546 0.8910
547 0.8910
548 0.8911
549 0.8916
550 0.8916
551 0.8914
552 0.8917
553 0.8919
554 0.8919
555 0.8920
556 0.8918
557 0.8917
558 0.8916
559 0.8913
560 0.8913
561 0.8918
562 0.8919
563 0.8921
564 0.8920
565 0.8917
566 0.8920
567 0.8921
568 0.8925
569 0.8927
570 0.8926
571 0.8926
572 0.8925
573 0.8922
574 0.8924
575 0.8922
576 0.8921
577 0.8925
578 0.8923
579 0.8923
580 0.8924
581 0.8921
582 0.8924
583 0.8928
584 0.8931
585 0.8934
586 0.8935
587 0.8936
588 0.8937
589 0.8935
590 0.8934
591 0.8935
592 0.8937
593 0.8938
594 0.8939
595 0.8938
596 0.8937
597 0.8939
598 0.8940
599 0.8943
600 0.8946
601 0.8941
602 0.8940
603 0.8941
604 0.8942
605 0.8944
606 0.8944
607 0.8941
608 0.8939
609 0.8935
610 0.8935
611 0.8937
612 0.8937
613 0.8941
614 0.8942
615 0.8944
616 0.8945
617 0.8948
618 0.8948
619 0.8949
620 0.8948
621 0.8950
622 0.8948
623 0.8945
624 0.8942
625 0.8948
626 0.8950
627 0.8948
628 0.8947
629 0.8947
630 0.8946
631 0.8949
632 0.8952
633 0.8952
634 0.8952
635 0.8952
636 0.8953
637 0.8956
638 0.8954
639 0.8953
640 0.8955
641 0.8962
642 0.8964
643 0.8963
644 0.8960
645 0.8959
646 0.8960
647 0.8964
648 0.8967
649 0.8968
650 0.8970
651 0.8968
652 0.8965
653 0.8970
654 0.8974
655 0.8977
656 0.8978
657 0.8975
658 0.8970
659 0.8971
660 0.8972
661 0.8970
662 0.8972
663 0.8975
664 0.8975
665 0.8984
666 0.8985
667 0.8984
668 0.8984
669 0.8979
670 0.8979
671 0.8979
672 0.8978
673 0.8980
674 0.8981
675 0.8982
676 0.8986
677 0.8984
678 0.8983
679 0.8986
680 0.8988
681 0.8988
682 0.8990
683 0.8996
684 0.8999
685 0.9002
686 0.8999
687 0.8995
688 0.8993
689 0.8991
690 0.8988
691 0.8984
692 0.8984
693 0.8987
694 0.8991
695 0.8993
696 0.8994
697 0.8993
698 0.8991
699 0.8986
700 0.8986
701 0.8989
702 0.8993
703 0.8995
704 0.8993
705 0.8984
706 0.8986
707 0.8989
708 0.8989
709 0.8991
710 0.8991
711 0.8994
712 0.8997
713 0.8999
714 0.8995
715 0.8992
716 0.8991
717 0.8997
718 0.9003
719 0.9005
720 0.9003
721 0.8999
722 0.8996
723 0.8997
724 0.8998
725 0.8997
726 0.8998
727 0.8995
728 0.8992
729 0.8991
730 0.8991
731 0.8987
732 0.8987
733 0.8985
734 0.8983
735 0.8984
736 0.8992
737 0.9001
738 0.9002
739 0.9002
740 0.9000
741 0.9003
742 0.9002
743 0.9003
744 0.9003
745 0.8999
746 0.8996
747 0.8990
748 0.8989
749 0.9003
750 0.9003
751 0.8998
752 0.8998
753 0.9005
754 0.9002
755 0.8999
756 0.8998
757 0.9005
758 0.9008
759 0.9008
760 0.9009
761 0.9011
762 0.9010
763 0.9011
764 0.9011
765 0.9010
766 0.9010
767 0.9010
768 0.9011
769 0.9020
770 0.9021
771 0.9014
772 0.9015
773 0.9012
774 0.9008
775 0.9006
776 0.9001
777 0.9005
778 0.9009
779 0.9010
780 0.9012
781 0.9005
782 0.9004
783 0.9008
784 0.9008
785 0.9016
786 0.9020
787 0.9014
788 0.9011
789 0.9008
790 0.9002
791 0.8996
792 0.8999
793 0.9004
794 0.9006
795 0.9009
796 0.9012
797 0.9018
798 0.9015
799 0.9013
800 0.9012
801 0.9011
802 0.9010
803 0.9014
804 0.9017
805 0.9021
806 0.9020
807 0.9018
808 0.9022
809 0.9031
810 0.9031
811 0.9027
812 0.9024
813 0.9022
814 0.9026
815 0.9030
816 0.9035
817 0.9031
818 0.9029
819 0.9019
820 0.9010
821 0.9016
822 0.9010
823 0.9009
824 0.9008
825 0.9009
826 0.9006
827 0.9000
828 0.9000
829 0.9000
830 0.8999
831 0.9001
832 0.8998
833 0.9006
834 0.9008
835 0.9003
836 0.9005
837 0.9000
838 0.8992
839 0.8985
840 0.8979
841 0.8988
842 0.8998
843 0.9003
844 0.9006
845 0.8992
846 0.8984
847 0.8979
848 0.8985
849 0.8993
850 0.8997
851 0.9004
852 0.9010
853 0.9041
854 0.9062
855 0.9071
856 0.9081
857 0.9051
858 0.9029
859 0.9025
860 0.9024
861 0.9023
862 0.9024
863 0.9024
864 0.9023
865 0.9023
866 0.9024
867 0.9024
868 0.9028
869 0.9032
870 0.9031
871 0.9032
872 0.9034
873 0.9038
874 0.9040
875 0.9039
876 0.9041
877 0.9049
878 0.9048
879 0.9048
880 0.9048
881 0.9044
882 0.9049
883 0.9054
884 0.9058
885 0.9060
886 0.9057
887 0.9053
888 0.9054
889 0.9059
890 0.9057
891 0.9058
892 0.9058
893 0.9056
894 0.9059
895 0.9059
896 0.9056
897 0.9058
898 0.9054
899 0.9051
900 0.9052
901 0.9046
902 0.9049
903 0.9050
904 0.9048
905 0.9047
906 0.9046
907 0.9048
908 0.9051
909 0.9053
910 0.9052
911 0.9052
912 0.9053
913 0.9057
914 0.9060
915 0.9061
916 0.9060
917 0.9063
918 0.9061
919 0.9062
920 0.9067
921 0.9067
922 0.9067
923 0.9071
924 0.9072
925 0.9071
926 0.9070
927 0.9068
928 0.9071
929 0.9068
930 0.9064
931 0.9066
932 0.9068
933 0.9069
934 0.9070
935 0.9069
936 0.9070
937 0.9069
938 0.9066
939 0.9065
940 0.9068
941 0.9066
942 0.9066
943 0.9068
944 0.9069
945 0.9072
946 0.9072
947 0.9070
948 0.9070
949 0.9073
950 0.9073
951 0.9073
952 0.9072
953 0.9070
954 0.9074
955 0.9073
956 0.9071
957 0.9072
958 0.9070
959 0.9070
960 0.9072
961 0.9068
962 0.9069
963 0.9070
964 0.9070
965 0.9073
966 0.9071
967 0.9069
968 0.9071
969 0.9069
970 0.9068
971 0.9068
972 0.9070
973 0.9068
974 0.9069
975 0.9071
976 0.9072
977 0.9074
978 0.9070
979 0.9066
980 0.9067
981 0.9063
982 0.9066
983 0.9068
984 0.9064
985 0.9066
986 0.9065
987 0.9062
988 0.9064
989 0.9062
990 0.9064
991 0.9067
992 0.9068
993 0.9067
994 0.9066
995 0.9065
996 0.9063
997 0.9063
998 0.9064
999 0.9064
1000 0.9065
1001 0.9061
1002 0.9063
1003 0.9064
1004 0.9061
1005 0.9064
1006 0.9065
1007 0.9062
1008 0.9062
1009 0.9062
1010 0.9063
1011 0.9064
1012 0.9064
1013 0.9061
1014 0.9063
1015 0.9063
1016 0.9065
1017 0.9065
1018 0.9064
1019 0.9065
1020 0.9067
1021 0.9062
1022 0.9065
1023 0.9065
1024 0.9064
1025 0.9063
1026 0.9064
1027 0.9061
1028 0.9064
1029 0.9068
1030 0.9066
1031 0.9070
1032 0.9072
1033 0.9072
1034 0.9073
1035 0.9071
1036 0.9071
1037 0.9074
1038 0.9073
1039 0.9073
1040 0.9073
1041 0.9072
1042 0.9072
1043 0.9073
1044 0.9073
1045 0.9074
1046 0.9075
1047 0.9076
1048 0.9076
1049 0.9076
1050 0.9075
1051 0.9074
1052 0.9073
1053 0.9072
1054 0.9072
1055 0.9072
1056 0.9072
1057 0.9078
1058 0.9077
1059 0.9076
1060 0.9077
1061 0.9073
1062 0.9075
1063 0.9077
1064 0.9076
1065 0.9076
1066 0.9076
1067 0.9074
1068 0.9074
1069 0.9074
1070 0.9072
1071 0.9075
1072 0.9077
1073 0.9078
1074 0.9078
1075 0.9076
1076 0.9074
1077 0.9078
1078 0.9075
1079 0.9075
1080 0.9079
1081 0.9077
1082 0.9079
1083 0.9079
1084 0.9075
1085 0.9076
1086 0.9078
1087 0.9075
1088 0.9076
1089 0.9074
1090 0.9074
1091 0.9078
1092 0.9078
1093 0.9075
1094 0.9077
1095 0.9075
1096 0.9074
1097 0.9072
1098 0.9067
1099 0.9066
1100 0.9064
1101 0.9057
1102 0.9056
1103 0.9057
1104 0.9055
1105 0.9052
1106 0.9046
1107 0.9042
1108 0.9042
1109 0.9033
1110 0.9027
1111 0.9025
1112 0.9020
1113 0.9010
1114 0.9006
1115 0.8997
1116 0.8989
1117 0.8974
1118 0.8963
1119 0.8955
1120 0.8948
1121 0.8923
1122 0.8914
1123 0.8903
1124 0.8889
1125 0.8866
1126 0.8847
1127 0.8829
1128 0.8816
1129 0.8789
1130 0.8779
1131 0.8774
1132 0.8769
1133 0.8765
1134 0.8770
1135 0.8775
1136 0.8784
1137 0.8808
1138 0.8819
1139 0.8833
1140 0.8848
1141 0.8870
1142 0.8882
1143 0.8891
1144 0.8897
1145 0.8915
1146 0.8922
1147 0.8929
1148 0.8938
1149 0.8951
1150 0.8957
1151 0.8966
1152 0.8972
1153 0.8985
1154 0.8992
1155 0.8993
1156 0.8994
1157 0.8995
1158 0.8992
1159 0.8991
1160 0.8988
1161 0.8981
1162 0.8981
1163 0.8982
1164 0.8980
1165 0.8978
1166 0.8973
1167 0.8969
1168 0.8968
1169 0.8959
1170 0.8956
1171 0.8955
1172 0.8950
1173 0.8939
1174 0.8934
1175 0.8929
1176 0.8924
1177 0.8914
1178 0.8905
1179 0.8901
1180 0.8897
1181 0.8882
1182 0.8878
1183 0.8872
1184 0.8865
1185 0.8865
1186 0.8866
1187 0.8871
1188 0.8881
1189 0.8902
1190 0.8915
1191 0.8929
1192 0.8945
1193 0.8969
1194 0.8983
1195 0.8996
1196 0.9004
1197 0.9020
1198 0.9026
1199 0.9029
1200 0.9032
1201 0.9040
1202 0.9042
1203 0.9046
1204 0.9049
1205 0.9048
1206 0.9052
1207 0.9052
1208 0.9052
1209 0.9058
1210 0.9058
1211 0.9059
1212 0.9064
1213 0.9066
1214 0.9068
1215 0.9068
1216 0.9067
1217 0.9069
1218 0.9070
1219 0.9069
1220 0.9068
1221 0.9068
1222 0.9066
1223 0.9067
1224 0.9068
1225 0.9065
1226 0.9067
1227 0.9066
1228 0.9064
1229 0.9068
1230 0.9065
1231 0.9065
1232 0.9068
1233 0.9070
1234 0.9072
1235 0.9075
1236 0.9074
1237 0.9075
1238 0.9077
1239 0.9074
1240 0.9075
1241 0.9076
1242 0.9074
1243 0.9076
1244 0.9077
1245 0.9075
1246 0.9077
1247 0.9076
1248 0.9075
1249 0.9074
1250 0.9071
1251 0.9073
1252 0.9077
1253 0.9079
1254 0.9080
1255 0.9082
1256 0.9079
1257 0.9079
1258 0.9077
1259 0.9072
1260 0.9073
1261 0.9075
1262 0.9073
1263 0.9075
1264 0.9076
1265 0.9077
1266 0.9079
1267 0.9079
1268 0.9078
1269 0.9081
1270 0.9080
1271 0.9079
1272 0.9079
1273 0.9074
1274 0.9077
1275 0.9080
1276 0.9080
1277 0.9081
1278 0.9081
1279 0.9078
1280 0.9077
1281 0.9075
1282 0.9074
1283 0.9074
1284 0.9074
1285 0.9069
1286 0.9069
1287 0.9068
1288 0.9067
1289 0.9070
1290 0.9068
1291 0.9068
1292 0.9071
1293 0.9068
1294 0.9070
1295 0.9071
1296 0.9070
1297 0.9073
1298 0.9074
1299 0.9072
1300 0.9071
1301 0.9069
1302 0.9067
1303 0.9067
1304 0.9067
1305 0.9064
1306 0.9065
1307 0.9064
1308 0.9063
1309 0.9065
1310 0.9062
1311 0.9061
1312 0.9062
1313 0.9057
1314 0.9058
1315 0.9058
1316 0.9055
1317 0.9053
1318 0.9052
1319 0.9050
1320 0.9049
1321 0.9046
1322 0.9046
1323 0.9045
1324 0.9043
1325 0.9040
1326 0.9041
1327 0.9039
1328 0.9039
1329 0.9042
1330 0.9040
1331 0.9039
1332 0.9042
1333 0.9040
1334 0.9040
1335 0.9038
1336 0.9035
1337 0.9035
1338 0.9034
1339 0.9030
1340 0.9029
1341 0.9022
1342 0.9019
1343 0.9015
1344 0.9010
1345 0.8997
1346 0.8993
1347 0.8986
1348 0.8981
1349 0.8977
1350 0.8969
1351 0.8961
1352 0.8956
1353 0.8936
1354 0.8930
1355 0.8926
1356 0.8921
1357 0.8920
1358 0.8917
1359 0.8912
1360 0.8909
1361 0.8903
1362 0.8900
1363 0.8899
1364 0.8894
1365 0.8888
1366 0.8883
1367 0.8874
1368 0.8863
1369 0.8852
1370 0.8851
1371 0.8854
1372 0.8858
1373 0.8863
1374 0.8865
1375 0.8866
1376 0.8867
1377 0.8868
1378 0.8872
1379 0.8871
1380 0.8872
1381 0.8865
1382 0.8866
1383 0.8870
1384 0.8872
1385 0.8874
1386 0.8875
1387 0.8873
1388 0.8869
1389 0.8870
1390 0.8870
1391 0.8873
1392 0.8875
1393 0.8873
1394 0.8876
1395 0.8880
1396 0.8886
1397 0.8899
1398 0.8901
1399 0.8904
1400 0.8909
1401 0.8913
1402 0.8917
1403 0.8921
1404 0.8922
1405 0.8916
1406 0.8916
1407 0.8916
1408 0.8919
1409 0.8927
1410 0.8930
1411 0.8935
1412 0.8942
1413 0.8949
1414 0.8952
1415 0.8953
1416 0.8954
1417 0.8958
1418 0.8959
1419 0.8958
1420 0.8959
1421 0.8954
1422 0.8954
1423 0.8955
1424 0.8954
1425 0.8950
1426 0.8951
1427 0.8951
1428 0.8951
1429 0.8953
1430 0.8952
1431 0.8954
1432 0.8956
1433 0.8957
1434 0.8960
1435 0.8963
1436 0.8964
1437 0.8969
1438 0.8969
1439 0.8969
1440 0.8973
1441 0.8976
1442 0.8980
1443 0.8983
1444 0.8983
1445 0.8981
1446 0.8980
1447 0.8979
1448 0.8977
1449 0.8974
1450 0.8973
1451 0.8975
1452 0.8979
1453 0.8980
1454 0.8982
1455 0.8981
1456 0.8980
1457 0.8983
1458 0.8983
1459 0.8982
1460 0.8985
1461 0.8985
1462 0.8988
1463 0.8989
1464 0.8989
1465 0.8986
1466 0.8988
1467 0.8987
1468 0.8986
1469 0.8988
1470 0.8987
1471 0.8987
1472 0.8990
1473 0.8993
1474 0.8995
1475 0.8995
1476 0.8995
1477 0.9000
1478 0.9001
1479 0.9001
1480 0.9002
1481 0.9003
1482 0.9005
1483 0.9007
1484 0.9007
1485 0.9008
1486 0.9011
1487 0.9012
1488 0.9014
1489 0.9019
1490 0.9020
1491 0.9022
1492 0.9024
1493 0.9026
1494 0.9030
1495 0.9032
1496 0.9032
1497 0.9037
1498 0.9036
1499 0.9035
1500 0.9034
1501 0.9031
1502 0.9032
1503 0.9032
1504 0.9032
1505 0.9037
1506 0.9038
1507 0.9040
1508 0.9040
1509 0.9042
1510 0.9043
1511 0.9045
1512 0.9047
1513 0.9045
1514 0.9047
1515 0.9046
1516 0.9045
1517 0.9050
1518 0.9050
1519 0.9050
1520 0.9051
1521 0.9049
1522 0.9051
1523 0.9054
1524 0.9053
1525 0.9054
1526 0.9053
1527 0.9053
1528 0.9054
1529 0.9054
1530 0.9054
1531 0.9055
1532 0.9057
1533 0.9054
1534 0.9055
1535 0.9054
1536 0.9054
1537 0.9051
1538 0.9050
1539 0.9050
1540 0.9052
1541 0.9052
1542 0.9054
1543 0.9053
1544 0.9053
1545 0.9052
1546 0.9051
1547 0.9051
1548 0.9052
1549 0.9054
1550 0.9054
1551 0.9055
1552 0.9053
1553 0.9047
1554 0.9046
1555 0.9046
1556 0.9047
1557 0.9048
1558 0.9046
1559 0.9046
1560 0.9048
1561 0.9048
1562 0.9048
1563 0.9047
1564 0.9045
1565 0.9044
1566 0.9040
1567 0.9039
1568 0.9039
1569 0.9038
1570 0.9041
1571 0.9040
1572 0.9039
1573 0.9034
1574 0.9032
1575 0.9028
1576 0.9027
1577 0.9031
1578 0.9028
1579 0.9026
1580 0.9026
1581 0.9022
1582 0.9021
1583 0.9019
1584 0.9016
1585 0.9015
1586 0.9012
1587 0.9010
1588 0.9009
1589 0.9003
1590 0.9001
1591 0.8997
1592 0.8992
1593 0.8979
1594 0.8977
1595 0.8974
1596 0.8973
1597 0.8968
1598 0.8962
1599 0.8954
1600 0.8949
1601 0.8937
1602 0.8932
1603 0.8927
1604 0.8921
1605 0.8910
1606 0.8902
1607 0.8890
1608 0.8881
1609 0.8859
1610 0.8847
1611 0.8836
1612 0.8823
1613 0.8793
1614 0.8778
1615 0.8761
1616 0.8744
1617 0.8720
1618 0.8713
1619 0.8707
1620 0.8700
1621 0.8684
1622 0.8676
1623 0.8665
1624 0.8650
1625 0.8609
1626 0.8590
1627 0.8568
1628 0.8548
1629 0.8504
1630 0.8482
1631 0.8459
1632 0.8432
1633 0.8385
1634 0.8358
1635 0.8327
1636 0.8295
1637 0.8216
1638 0.8165
1639 0.8112
1640 0.8056
1641 0.7945
1642 0.7892
1643 0.7840
1644 0.7793
1645 0.7710
1646 0.7672
1647 0.7636
1648 0.7598
1649 0.7505
1650 0.7449
1651 0.7383
1652 0.7304
1653 0.7114
1654 0.7010
1655 0.6899
1656 0.6784
1657 0.6543
1658 0.6417
1659 0.6290
1660 0.6168
1661 0.5948
1662 0.5859
1663 0.5788
1664 0.5741
1665 0.5739
1666 0.5786
1667 0.5862
1668 0.5966
1669 0.6229
1670 0.6364
1671 0.6500
1672 0.6628
1673 0.6848
1674 0.6931
1675 0.6993
1676 0.7034
1677 0.7065
1678 0.7059
1679 0.7044
1680 0.7022
1681 0.6974
1682 0.6953
1683 0.6940
1684 0.6934
1685 0.6951
1686 0.6973
1687 0.7002
1688 0.7036
1689 0.7110
1690 0.7141
1691 0.7169
1692 0.7193
1693 0.7234
1694 0.7257
1695 0.7287
1696 0.7323
1697 0.7431
1698 0.7495
1699 0.7564
1700 0.7634
1701 0.7766
1702 0.7827
1703 0.7883
1704 0.7933
1705 0.8020
1706 0.8054
1707 0.8083
1708 0.8107
1709 0.8137
1710 0.8145
1711 0.8150
1712 0.8151
1713 0.8151
1714 0.8151
1715 0.8152
1716 0.8154
1717 0.8160
1718 0.8165
1719 0.8171
1720 0.8177
1721 0.8178
1722 0.8173
1723 0.8165
1724 0.8153
1725 0.8117
1726 0.8094
1727 0.8071
1728 0.8049
1729 0.8015
1730 0.8004
1731 0.7998
1732 0.7998
1733 0.8018
1734 0.8034
1735 0.8055
1736 0.8081
1737 0.8144
1738 0.8181
1739 0.8220
1740 0.8257
1741 0.8329
1742 0.8361
1743 0.8392
1744 0.8420
1745 0.8472
1746 0.8495
1747 0.8515
1748 0.8531
1749 0.8557
1750 0.8564
1751 0.8570
1752 0.8571
1753 0.8562
1754 0.8555
1755 0.8544
1756 0.8532
1757 0.8507
1758 0.8493
1759 0.8481
1760 0.8469
1761 0.8451
1762 0.8444
1763 0.8440
1764 0.8439
1765 0.8450
1766 0.8460
1767 0.8473
1768 0.8488
1769 0.8524
1770 0.8542
1771 0.8562
1772 0.8581
1773 0.8620
1774 0.8639
1775 0.8654
1776 0.8665
1777 0.8688
1778 0.8697
1779 0.8704
1780 0.8709
1781 0.8712
1782 0.8716
1783 0.8715
1784 0.8714
1785 0.8712
1786 0.8709
1787 0.8708
1788 0.8707
1789 0.8703
1790 0.8701
1791 0.8698
1792 0.8697
1793 0.8696
1794 0.8693
1795 0.8693
1796 0.8689
1797 0.8685
1798 0.8683
1799 0.8682
1800 0.8680
1801 0.8681
1802 0.8683
1803 0.8683
1804 0.8679
1805 0.8680
1806 0.8679
1807 0.8678
1808 0.8676
1809 0.8675
1810 0.8676
1811 0.8676
1812 0.8676
1813 0.8677
1814 0.8677
1815 0.8677
1816 0.8677
1817 0.8674
1818 0.8669
1819 0.8661
1820 0.8652
1821 0.8635
1822 0.8628
1823 0.8625
1824 0.8621
1825 0.8622
1826 0.8623
1827 0.8625
1828 0.8630
1829 0.8644
1830 0.8649
1831 0.8655
1832 0.8659
1833 0.8665
1834 0.8667
1835 0.8667
1836 0.8669
1837 0.8668
1838 0.8671
1839 0.8674
1840 0.8677
1841 0.8687
1842 0.8689
1843 0.8691
1844 0.8691
1845 0.8697
1846 0.8702
1847 0.8705
1848 0.8704
1849 0.8702
1850 0.8699
1851 0.8701
1852 0.8704
1853 0.8713
1854 0.8720
1855 0.8723
1856 0.8722
1857 0.8724
1858 0.8721
1859 0.8720
1860 0.8718
1861 0.8710
1862 0.8707
1863 0.8703
1864 0.8699
1865 0.8701
1866 0.8707
1867 0.8717
1868 0.8725
1869 0.8742
1870 0.8743
1871 0.8740
1872 0.8733
1873 0.8711
1874 0.8702
1875 0.8699
1876 0.8695
1877 0.8694
1878 0.8690
1879 0.8687
1880 0.8685
1881 0.8680
1882 0.8676
1883 0.8671
1884 0.8666
1885 0.8663
1886 0.8660
1887 0.8656
1888 0.8649
1889 0.8623
1890 0.8606
1891 0.8590
1892 0.8576
1893 0.8555
1894 0.8546
1895 0.8538
1896 0.8530
1897 0.8528
1898 0.8529
1899 0.8533
1900 0.8539
1901 0.8561
1902 0.8576
1903 0.8594
1904 0.8611
1905 0.8650
1906 0.8666
1907 0.8679
1908 0.8691
1909 0.8711
1910 0.8718
1911 0.8725
1912 0.8731
1913 0.8739
1914 0.8742
1915 0.8747
1916 0.8752
1917 0.8749
1918 0.8747
1919 0.8748
1920 0.8750
1921 0.8756
1922 0.8755
1923 0.8757
1924 0.8757
1925 0.8754
1926 0.8755
1927 0.8755
1928 0.8753
1929 0.8751
1930 0.8749
1931 0.8751
1932 0.8752
1933 0.8755
1934 0.8756
1935 0.8757
1936 0.8760
1937 0.8766
1938 0.8766
1939 0.8769
1940 0.8774
1941 0.8781
1942 0.8782
1943 0.8784
1944 0.8786
1945 0.8789
1946 0.8789
1947 0.8790
1948 0.8791
1949 0.8796
1950 0.8795
1951 0.8792
1952 0.8791
1953 0.8793
1954 0.8795
1955 0.8796
1956 0.8795
1957 0.8792
1958 0.8791
1959 0.8792
1960 0.8792
1961 0.8788
1962 0.8786
1963 0.8783
1964 0.8780
1965 0.8777
1966 0.8778
1967 0.8778
1968 0.8777
1969 0.8776
1970 0.8776
1971 0.8775
1972 0.8775
1973 0.8772
1974 0.8771
1975 0.8773
1976 0.8773
1977 0.8777
1978 0.8777
1979 0.8777
1980 0.8780
1981 0.8780
1982 0.8782
1983 0.8782
1984 0.8775
1985 0.8774
1986 0.8770
1987 0.8766
1988 0.8765
1989 0.8758
1990 0.8759
1991 0.8758
1992 0.8753
1993 0.8752
1994 0.8749
1995 0.8746
1996 0.8746
1997 0.8738
1998 0.8737
1999 0.8733
2000 0.8730
2001 0.8728
2002 0.8722
2003 0.8721
2004 0.8720
2005 0.8711
2006 0.8709
2007 0.8705
2008 0.8699
2009 0.8696
2010 0.8689
2011 0.8690
2012 0.8696
2013 0.8694
2014 0.8694
2015 0.8691
2016 0.8682
2017 0.8687
2018 0.8681
2019 0.8681
2020 0.8683
2021 0.8672
2022 0.8671
2023 0.8671
2024 0.8663
2025 0.8658
2026 0.8650
2027 0.8641
2028 0.8634
2029 0.8617
2030 0.8609
2031 0.8600
2032 0.8587
2033 0.8566
2034 0.8554
2035 0.8540
2036 0.8530
2037 0.8506
2038 0.8493
2039 0.8483
2040 0.8477
2041 0.8467
2042 0.8466
2043 0.8462
2044 0.8458
2045 0.8455
2046 0.8450
2047 0.8444
2048 0.8441
2049 0.8426
2050 0.8424
2051 0.8416
2052 0.8399
2053 0.8373
2054 0.8360
2055 0.8346
2056 0.8336
2057 0.8310
2058 0.8300
2059 0.8295
2060 0.8290
2061 0.8287
2062 0.8287
2063 0.8286
2064 0.8289
2065 0.8303
2066 0.8307
2067 0.8313
2068 0.8320
2069 0.8329
2070 0.8337
2071 0.8344
2072 0.8348
2073 0.8356
2074 0.8359
2075 0.8360
2076 0.8362
2077 0.8367
2078 0.8364
2079 0.8363
2080 0.8360
2081 0.8348
2082 0.8343
2083 0.8336
2084 0.8326
2085 0.8309
2086 0.8299
2087 0.8288
2088 0.8279
2089 0.8253
2090 0.8243
2091 0.8231
2092 0.8215
2093 0.8182
2094 0.8167
2095 0.8151
2096 0.8134
2097 0.8097
2098 0.8074
2099 0.8051
2100 0.8028
2101 0.7974
2102 0.7947
2103 0.7916
2104 0.7877
2105 0.7802
2106 0.7759
2107 0.7711
2108 0.7662
2109 0.7550
2110 0.7488
2111 0.7424
2112 0.7354
2113 0.7205
2114 0.7126
2115 0.7040
2116 0.6949
2117 0.6750
2118 0.6639
2119 0.6524
2120 0.6404
2121 0.6151
2122 0.6023
2123 0.5895
2124 0.5769
2125 0.5539
2126 0.5432
2127 0.5333
2128 0.5244
2129 0.5097
2130 0.5041
2131 0.4997
2132 0.4967
2133 0.4949
2134 0.4965
2135 0.4995
2136 0.5039
2137 0.5160
2138 0.5226
2139 0.5297
2140 0.5368
2141 0.5489
2142 0.5537
2143 0.5570
2144 0.5588
2145 0.5583
2146 0.5557
2147 0.5519
2148 0.5470
2149 0.5341
2150 0.5271
2151 0.5202
2152 0.5138
2153 0.5044
2154 0.5022
2155 0.5020
2156 0.5043
2157 0.5168
2158 0.5265
2159 0.5385
2160 0.5522
2161 0.5826
2162 0.5988
2163 0.6146
2164 0.6294
2165 0.6557
2166 0.6664
2167 0.6754
2168 0.6828
2169 0.6922
2170 0.6947
2171 0.6962
2172 0.6964
2173 0.6940
2174 0.6918
2175 0.6888
2176 0.6853
2177 0.6783
2178 0.6747
2179 0.6717
2180 0.6691
2181 0.6655
2182 0.6653
2183 0.6659
2184 0.6673
2185 0.6738
2186 0.6783
2187 0.6837
2188 0.6901
2189 0.7034
2190 0.7100
2191 0.7168
2192 0.7232
2193 0.7341
2194 0.7388
2195 0.7425
2196 0.7455
2197 0.7500
2198 0.7511
2199 0.7521
2200 0.7528
2201 0.7531
2202 0.7534
2203 0.7533
2204 0.7530
2205 0.7534
2206 0.7533
2207 0.7533
2208 0.7536
2209 0.7534
2210 0.7532
2211 0.7533
2212 0.7527
2213 0.7513
2214 0.7503
2215 0.7488
2216 0.7473
2217 0.7432
2218 0.7407
2219 0.7379
2220 0.7348
2221 0.7280
2222 0.7246
2223 0.7211
2224 0.7172
2225 0.7104
2226 0.7071
2227 0.7039
2228 0.7013
2229 0.6963
2230 0.6945
2231 0.6932
2232 0.6919
2233 0.6896
2234 0.6886
2235 0.6873
2236 0.6862
2237 0.6834
2238 0.6814
2239 0.6792
2240 0.6767
2241 0.6702
2242 0.6663
2243 0.6617
2244 0.6564
2245 0.6454
2246 0.6391
2247 0.6324
2248 0.6254
2249 0.6094
2250 0.6013
2251 0.5930
2252 0.5844
2253 0.5666
2254 0.5576
2255 0.5485
2256 0.5394
2257 0.5215
2258 0.5125
2259 0.5038
2260 0.4955
2261 0.4794
2262 0.4726
2263 0.4662
2264 0.4603
2265 0.4522
2266 0.4492
2267 0.4472
2268 0.4462
2269 0.4461
2270 0.4475
2271 0.4493
2272 0.4513
2273 0.4558
2274 0.4578
2275 0.4594
2276 0.4608
2277 0.4619
2278 0.4615
2279 0.4606
2280 0.4590
2281 0.4536
2282 0.4504
2283 0.4466
2284 0.4424
2285 0.4340
2286 0.4296
2287 0.4252
2288 0.4210
2289 0.4124
2290 0.4086
2291 0.4050
2292 0.4013
2293 0.3945
2294 0.3914
2295 0.3883
2296 0.3855
2297 0.3800
2298 0.3772
2299 0.3746
2300 0.3719
2301 0.3665
2302 0.3641
2303 0.3615
2304 0.3588
2305 0.3546
2306 0.3529
2307 0.3515
2308 0.3506
2309 0.3497
2310 0.3500
2311 0.3507
2312 0.3515
2313 0.3546
2314 0.3568
2315 0.3590
2316 0.3615
2317 0.3669
2318 0.3694
2319 0.3721
2320 0.3747
2321 0.3792
2322 0.3817
2323 0.3838
2324 0.3860
2325 0.3906
2326 0.3928
2327 0.3951
2328 0.3976
2329 0.4022
2330 0.4049
2331 0.4077
2332 0.4103
2333 0.4157
2334 0.4185
2335 0.4212
2336 0.4241
2337 0.4298
2338 0.4324
2339 0.4350
2340 0.4376
2341 0.4427
2342 0.4454
2343 0.4480
2344 0.4505
2345 0.4557
2346 0.4580
2347 0.4603
2348 0.4626
2349 0.4659
2350 0.4675
2351 0.4689
2352 0.4697
2353 0.4710
2354 0.4711
2355 0.4707
2356 0.4702
2357 0.4685
2358 0.4674
2359 0.4664
2360 0.4653
2361 0.4622
2362 0.4607
2363 0.4587
2364 0.4568
2365 0.4536
2366 0.4519
2367 0.4503
2368 0.4488
2369 0.4454
2370 0.4440
2371 0.4423
2372 0.4406
2373 0.4377
2374 0.4363
2375 0.4347
2376 0.4335
2377 0.4314
2378 0.4302
2379 0.4292
2380 0.4281
2381 0.4257
2382 0.4248
2383 0.4236
2384 0.4226
2385 0.4206
2386 0.4193
2387 0.4182
2388 0.4173
2389 0.4156
2390 0.4150
2391 0.4147
2392 0.4144
2393 0.4151
2394 0.4157
2395 0.4165
2396 0.4180
2397 0.4219
2398 0.4244
2399 0.4271
2400 0.4302
2401 0.4371
2402 0.4410
2403 0.4450
2404 0.4491
2405 0.4573
2406 0.4611
2407 0.4649
2408 0.4688
2409 0.4755
2410 0.4787
2411 0.4816
2412 0.4838
2413 0.4876
2414 0.4887
2415 0.4894
2416 0.4901
2417 0.4898
2418 0.4890
2419 0.4881
2420 0.4864
2421 0.4817
2422 0.4787
2423 0.4749
2424 0.4707
2425 0.4607
2426 0.4546
2427 0.4479
2428 0.4409
2429 0.4245
2430 0.4159
2431 0.4070
2432 0.3978
2433 0.3788
2434 0.3685
2435 0.3577
2436 0.3468
2437 0.3243
2438 0.3130
2439 0.3018
2440 0.2906
2441 0.2686
2442 0.2581
2443 0.2478
2444 0.2381
2445 0.2208
2446 0.2129
2447 0.2060
2448 0.1999
2449 0.1905
2450 0.1877
2451 0.1859
2452 0.1851
2453 0.1874
2454 0.1903
2455 0.1946
2456 0.2002
2457 0.2146
2458 0.2233
2459 0.2329
2460 0.2433
2461 0.2660
2462 0.2783
2463 0.2908
2464 0.3037
2465 0.3300
2466 0.3427
2467 0.3555
2468 0.3680
2469 0.3915
2470 0.4029
2471 0.4135
2472 0.4234
2473 0.4417
2474 0.4494
2475 0.4563
2476 0.4628
2477 0.4735
2478 0.4781
2479 0.4821
2480 0.4853
2481 0.4903
2482 0.4924
2483 0.4937
2484 0.4950
2485 0.4972
2486 0.4977
2487 0.4982
2488 0.4988
2489 0.4988
2490 0.4991
2491 0.4992
2492 0.4989
2493 0.4987
2494 0.4983
2495 0.4981
2496 0.4982
2497 0.4978
2498 0.4976
2499 0.4975
2500 0.4973
2501 0.4977
2502 0.4981
2503 0.4980
2504 0.4981
2505 0.4989
2506 0.4992
2507 0.5000
2508 0.5011
2509 0.5030
2510 0.5046
2511 0.5061
2512 0.5076
2513 0.5117
2514 0.5137
2515 0.5157
2516 0.5182
2517 0.5218
2518 0.5236
2519 0.5254
2520 0.5266
2521 0.5288
2522 0.5295
2523 0.5297
2524 0.5301
2525 0.5310
2526 0.5310
2527 0.5311
2528 0.5310
2529 0.5297
2530 0.5292
2531 0.5284
2532 0.5275
2533 0.5265
2534 0.5257
2535 0.5249
2536 0.5246
2537 0.5232
2538 0.5228
2539 0.5227
2540 0.5222
2541 0.5211
2542 0.5206
2543 0.5196
2544 0.5188
2545 0.5167
2546 0.5152
2547 0.5140
2548 0.5127
2549 0.5098
2550 0.5088
2551 0.5073
2552 0.5055
2553 0.5026
2554 0.5006
2555 0.4988
2556 0.4975
2557 0.4940
2558 0.4923
2559 0.4907
2560 0.4888
2561 0.4856
2562 0.4839
2563 0.4821
2564 0.4807
2565 0.4783
2566 0.4771
2567 0.4764
2568 0.4760
2569 0.4747
2570 0.4747
2571 0.4747
2572 0.4753
2573 0.4784
2574 0.4801
2575 0.4825
2576 0.4857
2577 0.4926
2578 0.4970
2579 0.5019
2580 0.5068
2581 0.5177
2582 0.5233
2583 0.5286
2584 0.5345
2585 0.5462
2586 0.5517
2587 0.5576
2588 0.5635
2589 0.5743
2590 0.5796
2591 0.5845
2592 0.5890
2593 0.5979
2594 0.6014
2595 0.6046
2596 0.6083
2597 0.6140
2598 0.6170
2599 0.6198
2600 0.6217
2601 0.6256
2602 0.6270
2603 0.6280
2604 0.6293
2605 0.6315
2606 0.6321
2607 0.6330
2608 0.6334
2609 0.6334
2610 0.6338
2611 0.6337
2612 0.6334
2613 0.6331
2614 0.6326
2615 0.6321
2616 0.6321
2617 0.6311
2618 0.6309
2619 0.6308
2620 0.6304
2621 0.6313
2622 0.6323
2623 0.6336
2624 0.6352
2625 0.6387
2626 0.6404
2627 0.6423
2628 0.6446
2629 0.6493
2630 0.6519
2631 0.6545
2632 0.6570
2633 0.6623
2634 0.6644
2635 0.6665
2636 0.6686
2637 0.6718
2638 0.6729
2639 0.6740
2640 0.6749
2641 0.6760
2642 0.6763
2643 0.6764
2644 0.6762
2645 0.6752
2646 0.6744
2647 0.6731
2648 0.6713
2649 0.6669
2650 0.6643
2651 0.6615
2652 0.6586
2653 0.6525
2654 0.6496
2655 0.6465
2656 0.6438
2657 0.6383
2658 0.6356
2659 0.6330
2660 0.6302
2661 0.6254
2662 0.6233
2663 0.6214
2664 0.6197
2665 0.6172
2666 0.6163
2667 0.6157
2668 0.6155
2669 0.6158
2670 0.6163
2671 0.6170
2672 0.6177
2673 0.6200
2674 0.6211
2675 0.6221
2676 0.6233
2677 0.6253
2678 0.6261
2679 0.6266
2680 0.6270
2681 0.6272
2682 0.6268
2683 0.6261
2684 0.6251
2685 0.6223
2686 0.6198
2687 0.6169
2688 0.6137
2689 0.6057
2690 0.6012
2691 0.5963
2692 0.5909
2693 0.5789
2694 0.5726
2695 0.5660
2696 0.5594
2697 0.5464
2698 0.5400
2699 0.5338
2700 0.5274
2701 0.5139
2702 0.5068
2703 0.4993
2704 0.4914
2705 0.4743
2706 0.4653
2707 0.4563
2708 0.4474
2709 0.4304
2710 0.4226
2711 0.4155
2712 0.4088
2713 0.3980
2714 0.3937
2715 0.3900
2716 0.3875
2717 0.3856
2718 0.3862
2719 0.3879
2720 0.3903
2721 0.3981
2722 0.4032
2723 0.4089
2724 0.4150
2725 0.4278
2726 0.4343
2727 0.4409
2728 0.4477
2729 0.4611
2730 0.4681
2731 0.4751
2732 0.4824
2733 0.4983
2734 0.5066
2735 0.5154
2736 0.5245
2737 0.5422
2738 0.5503
2739 0.5579
2740 0.5647
2741 0.5760
2742 0.5806
2743 0.5843
2744 0.5874
2745 0.5920
2746 0.5939
2747 0.5956
2748 0.5970
2749 0.5999
2750 0.6015
2751 0.6030
2752 0.6046
2753 0.6085
2754 0.6107
2755 0.6131
2756 0.6156
2757 0.6207
2758 0.6232
2759 0.6254
2760 0.6273
2761 0.6303
2762 0.6316
2763 0.6323
2764 0.6326
2765 0.6321
2766 0.6310
2767 0.6294
2768 0.6275
2769 0.6226
2770 0.6196
2771 0.6160
2772 0.6120
2773 0.6025
2774 0.5970
2775 0.5911
2776 0.5850
2777 0.5721
2778 0.5652
2779 0.5578
2780 0.5500
2781 0.5337
2782 0.5256
2783 0.5173
2784 0.5091
2785 0.4931
2786 0.4856
2787 0.4783
2788 0.4714
2789 0.4584
2790 0.4523
2791 0.4463
2792 0.4406
2793 0.4299
2794 0.4246
2795 0.4193
2796 0.4139
2797 0.4025
2798 0.3966
2799 0.3906
2800 0.3845
2801 0.3716
2802 0.3654
2803 0.3591
2804 0.3528
2805 0.3403
2806 0.3340
2807 0.3278
2808 0.3217
2809 0.3091
2810 0.3027
2811 0.2963
2812 0.2896
2813 0.2764
2814 0.2697
2815 0.2630
2816 0.2565
2817 0.2436
2818 0.2372
2819 0.2312
2820 0.2255
2821 0.2150
2822 0.2105
2823 0.2064
2824 0.2028
2825 0.1976
2826 0.1960
2827 0.1952
2828 0.1952
2829 0.1972
2830 0.1992
2831 0.2016
2832 0.2047
2833 0.2131
2834 0.2183
2835 0.2240
2836 0.2305
2837 0.2450
2838 0.2530
2839 0.2614
2840 0.2701
2841 0.2878
2842 0.2974
2843 0.3071
2844 0.3168
2845 0.3369
2846 0.3470
2847 0.3570
2848 0.3670
2849 0.3857
2850 0.3949
2851 0.4039
2852 0.4126
2853 0.4294
2854 0.4372
2855 0.4444
2856 0.4515
2857 0.4645
2858 0.4703
2859 0.4756
2860 0.4807
2861 0.4897
2862 0.4941
2863 0.4981
2864 0.5018
2865 0.5088
2866 0.5118
2867 0.5146
2868 0.5175
2869 0.5230
2870 0.5258
2871 0.5285
2872 0.5311
2873 0.5366
2874 0.5394
2875 0.5419
2876 0.5446
2877 0.5496
2878 0.5519
2879 0.5543
2880 0.5570
2881 0.5622
2882 0.5649
2883 0.5674
2884 0.5700
2885 0.5758
2886 0.5788
2887 0.5816
2888 0.5844
2889 0.5894
2890 0.5920
2891 0.5945
2892 0.5970
2893 0.6021
2894 0.6044
2895 0.6067
2896 0.6090
2897 0.6141
2898 0.6166
2899 0.6190
2900 0.6212
2901 0.6251
2902 0.6272
2903 0.6290
2904 0.6308
2905 0.6347
2906 0.6365
2907 0.6381
2908 0.6400
2909 0.6430
2910 0.6445
2911 0.6458
2912 0.6471
2913 0.6494
2914 0.6507
2915 0.6517
2916 0.6527
2917 0.6545
2918 0.6552
2919 0.6562
2920 0.6571
2921 0.6578
2922 0.6581
2923 0.6584
2924 0.6589
2925 0.6595
2926 0.6593
2927 0.6592
2928 0.6591
2929 0.6578
2930 0.6571
2931 0.6563
2932 0.6553
2933 0.6536
2934 0.6524
2935 0.6511
2936 0.6501
2937 0.6470
2938 0.6452
2939 0.6434
2940 0.6415
2941 0.6391
2942 0.6378
2943 0.6362
2944 0.6344
2945 0.6305
2946 0.6283
2947 0.6262
2948 0.6244
2949 0.6201
2950 0.6181
2951 0.6161
2952 0.6140
2953 0.6111
2954 0.6097
2955 0.6083
2956 0.6070
2957 0.6037
2958 0.6023
2959 0.6013
2960 0.6002
2961 0.5981
2962 0.5972
2963 0.5962
2964 0.5958
2965 0.5962
2966 0.5961
2967 0.5955
2968 0.5955
2969 0.5956
2970 0.5956
2971 0.5954
2972 0.5953
2973 0.5957
2974 0.5956
2975 0.5955
2976 0.5961
2977 0.5972
2978 0.5972
2979 0.5971
2980 0.5973
2981 0.5975
2982 0.5978
2983 0.5979
2984 0.5981
2985 0.5985
2986 0.5983
2987 0.5983
2988 0.5980
2989 0.5962
2990 0.5953
2991 0.5943
2992 0.5933
2993 0.5917
2994 0.5909
2995 0.5891
2996 0.5877
2997 0.5846
2998 0.5827
2999 0.5808
3000 0.5788
3001 0.5748
3002 0.5729
3003 0.5703
3004 0.5676
3005 0.5636
3006 0.5611
3007 0.5585
3008 0.5564
3009 0.5509
3010 0.5484
3011 0.5457
3012 0.5427
3013 0.5365
3014 0.5331
3015 0.5297
3016 0.5269
3017 0.5207
3018 0.5176
3019 0.5146
3020 0.5116
3021 0.5054
3022 0.5026
3023 0.4997
3024 0.4967
3025 0.4915
3026 0.4888
3027 0.4858
3028 0.4840
3029 0.4794
3030 0.4779
3031 0.4764
3032 0.4744
3033 0.4702
3034 0.4688
3035 0.4672
3036 0.4659
3037 0.4623
3038 0.4604
3039 0.4590
3040 0.4573
3041 0.4545
3042 0.4534
3043 0.4519
3044 0.4507
3045 0.4497
3046 0.4484
3047 0.4470
3048 0.4459
3049 0.4415
3050 0.4401
3051 0.4387
3052 0.4363
3053 0.4327
3054 0.4308
3055 0.4297
3056 0.4290
3057 0.4269
3058 0.4256
3059 0.4246
3060 0.4232
3061 0.4207
3062 0.4203
3063 0.4192
3064 0.4177
3065 0.4149
3066 0.4129
3067 0.4111
3068 0.4104
3069 0.4054
3070 0.4035
3071 0.4021
3072 0.4007
3073 0.3995
3074 0.3996
3075 0.3985
3076 0.3973
3077 0.3922
3078 0.3909
3079 0.3911
3080 0.3909
3081 0.3883
3082 0.3865
3083 0.3844
3084 0.3835
3085 0.3834
3086 0.3822
3087 0.3804
3088 0.3785
3089 0.3730
3090 0.3724
3091 0.3722
3092 0.3713
3093 0.3705
3094 0.3696
3095 0.3663
3096 0.3642
3097 0.3572
3098 0.3544
3099 0.3532
3100 0.3511
3101 0.3458
3102 0.3436
3103 0.3406
3104 0.3374
3105 0.3301
3106 0.3261
3107 0.3226
3108 0.3201
3109 0.3143
3110 0.3120
3111 0.3093
3112 0.3060
3113 0.2995
3114 0.2957
3115 0.2904
3116 0.2877
3117 0.2794
3118 0.2758
3119 0.2731
3120 0.2697
3121 0.2638
3122 0.2596
3123 0.2548
3124 0.2511
3125 0.2460
3126 0.2443
3127 0.2443
3128 0.2447
3129 0.2414
3130 0.2407
3131 0.2402
3132 0.2383
3133 0.2360
3134 0.2350
3135 0.2344
3136 0.2346
3137 0.2332
3138 0.2333
3139 0.2348
3140 0.2350
3141 0.2338
3142 0.2341
3143 0.2326
3144 0.2316
3145 0.2328
3146 0.2334
3147 0.2342
3148 0.2348
3149 0.2330
3150 0.2332
3151 0.2325
3152 0.2311
3153 0.2339
3154 0.2358
3155 0.2354
3156 0.2364
3157 0.2290
3158 0.2264
3159 0.2267
3160 0.2263
3161 0.2259
3162 0.2245
3163 0.2207
3164 0.2184
3165 0.2141
3166 0.2112
3167 0.2100
3168 0.2102
3169 0.2063
3170 0.2050
3171 0.2021
3172 0.1976
3173 0.1909
3174 0.1875
3175 0.1835
3176 0.1790
3177 0.1690
3178 0.1641
3179 0.1585
3180 0.1514
3181 0.1420
3182 0.1377
3183 0.1318
3184 0.1283
3185 0.1202
3186 0.1164
3187 0.1147
3188 0.1125
3189 0.1009
3190 0.0965
3191 0.0893
3192 0.0816
3193 0.0761
3194 0.0720
3195 0.0688
3196 0.0678
3197 0.0636
3198 0.0594
3199 0.0588
3200 0.0593
##END=
