##TITLE= squartz
##JCAMP-DX= 4.24
##DATA TYPE= ULTRAVIOLET SPECTRUM
##SAMPLE DESCRIPTION= $$
$$         13:01:12    24/03/27
##SPECTROMETER/DATA SYSTEM= Perkin-Elmer Lambda Series / PECSS
##DATE= 24/03/27
##XUNITS= NANOMETERS
##YUNITS= TRANSMITTANCE
##MAXY= 0.8809
##MINY= 0.6464
##XFACTOR= 1.00
##YFACTOR= 1.0000
##FIRSTX= 200.0
##LASTX= 3200.0
##NPOINTS= 3001
##FIRSTY= 0.6474
##XYDATA= (XY..XY)
200 0.6474
201 0.6464
202 0.6490
203 0.6520
204 0.6571
205 0.6680
206 0.6733
207 0.6796
208 0.6855
209 0.6935
210 0.6976
211 0.7007
212 0.7039
213 0.7099
214 0.7119
215 0.7144
216 0.7177
217 0.7229
218 0.7246
219 0.7263
220 0.7274
221 0.7305
222 0.7324
223 0.7331
224 0.7339
225 0.7363
226 0.7376
227 0.7392
228 0.7406
229 0.7433
230 0.7454
231 0.7468
232 0.7476
233 0.7500
234 0.7511
235 0.7523
236 0.7537
237 0.7553
238 0.7564
239 0.7574
240 0.7578
241 0.7602
242 0.7613
243 0.7624
244 0.7639
245 0.7658
246 0.7665
247 0.7677
248 0.7686
249 0.7703
250 0.7714
251 0.7719
252 0.7727
253 0.7746
254 0.7749
255 0.7756
256 0.7767
257 0.7780
258 0.7792
259 0.7802
260 0.7806
261 0.7817
262 0.7823
263 0.7824
264 0.7831
265 0.7840
266 0.7843
267 0.7849
268 0.7852
269 0.7858
270 0.7866
271 0.7870
272 0.7871
273 0.7883
274 0.7886
275 0.7889
276 0.7896
277 0.7901
278 0.7908
279 0.7914
280 0.7915
281 0.7927
282 0.7935
283 0.7936
284 0.7942
285 0.7951
286 0.7955
287 0.7964
288 0.7970
289 0.7977
290 0.7983
291 0.7985
292 0.7987
293 0.7996
294 0.8002
295 0.8007
296 0.8014
297 0.8021
298 0.8029
299 0.8035
300 0.8035
301 0.8041
302 0.8044
303 0.8047
304 0.8053
305 0.8059
306 0.8059
307 0.8062
308 0.8060
309 0.8067
310 0.8072
311 0.8072
312 0.8079
313 0.8090
314 0.8089
315 0.8092
316 0.8098
317 0.8099
318 0.8104
319 0.8112
320 0.8117
321 0.8113
322 0.8115
323 0.8119
324 0.8125
325 0.8134
326 0.8134
327 0.8137
328 0.8143
329 0.8142
330 0.8143
331 0.8145
332 0.8147
333 0.8149
334 0.8149
335 0.8148
336 0.8151
337 0.8160
338 0.8165
339 0.8170
340 0.8172
341 0.8174
342 0.8181
343 0.8185
344 0.8188
345 0.8190
346 0.8191
347 0.8191
348 0.8193
349 0.8200
350 0.8203
351 0.8209
352 0.8210
353 0.8211
354 0.8219
355 0.8222
356 0.8224
357 0.8229
358 0.8230
359 0.8231
360 0.8231
361 0.8232
362 0.8235
363 0.8232
364 0.8229
365 0.8228
366 0.8229
367 0.8233
368 0.8237
369 0.8238
370 0.8242
371 0.8246
372 0.8247
373 0.8250
374 0.8251
375 0.8248
376 0.8249
377 0.8260
378 0.8273
379 0.8275
380 0.8275
381 0.8276
382 0.8276
383 0.8275
384 0.8276
385 0.8277
386 0.8278
387 0.8282
388 0.8284
389 0.8289
390 0.8289
391 0.8289
392 0.8292
393 0.8297
394 0.8302
395 0.8305
396 0.8306
397 0.8305
398 0.8305
399 0.8306
400 0.8307
401 0.8314
402 0.8316
403 0.8318
404 0.8320
405 0.8322
406 0.8321
407 0.8323
408 0.8323
409 0.8321
410 0.8326
411 0.8330
412 0.8331
413 0.8332
414 0.8330
415 0.8329
416 0.8330
417 0.8334
418 0.8337
419 0.8339
420 0.8339
421 0.8346
422 0.8349
423 0.8349
424 0.8347
425 0.8344
426 0.8346
427 0.8348
428 0.8349
429 0.8352
430 0.8353
431 0.8352
432 0.8352
433 0.8358
434 0.8359
435 0.8360
436 0.8361
437 0.8360
438 0.8362
439 0.8363
440 0.8362
441 0.8368
442 0.8368
443 0.8368
444 0.8371
445 0.8374
446 0.8375
447 0.8374
448 0.8371
449 0.8370
450 0.8372
451 0.8371
452 0.8372
453 0.8377
454 0.8379
455 0.8382
456 0.8384
457 0.8381
458 0.8383
459 0.8385
460 0.8385
461 0.8388
462 0.8389
463 0.8388
464 0.8390
465 0.8391
466 0.8393
467 0.8395
468 0.8394
469 0.8394
470 0.8395
471 0.8395
472 0.8396
473 0.8398
474 0.8397
475 0.8399
476 0.8400
477 0.8403
478 0.8405
479 0.8404
480 0.8403
481 0.8406
482 0.8407
483 0.8409
484 0.8410
485 0.8411
486 0.8411
487 0.8412
488 0.8411
489 0.8413
490 0.8411
491 0.8409
492 0.8410
493 0.8413
494 0.8413
495 0.8415
496 0.8416
497 0.8414
498 0.8417
499 0.8417
500 0.8417
501 0.8418
502 0.8417
503 0.8418
504 0.8420
505 0.8422
506 0.8426
507 0.8428
508 0.8429
509 0.8428
510 0.8428
511 0.8429
512 0.8430
513 0.8432
514 0.8433
515 0.8435
516 0.8438
517 0.8438
518 0.8441
519 0.8439
520 0.8437
521 0.8439
522 0.8441
523 0.8441
524 0.8444
525 0.8445
526 0.8447
527 0.8448
528 0.8448
529 0.8446
530 0.8446
531 0.8445
532 0.8446
533 0.8447
534 0.8448
535 0.8447
536 0.8446
537 0.8446
538 0.8449
539 0.8450
540 0.8451
541 0.8450
542 0.8448
543 0.8448
544 0.8450
545 0.8457
546 0.8460
547 0.8463
548 0.8463
549 0.8462
550 0.8463
551 0.8462
552 0.8463
553 0.8463
554 0.8462
555 0.8463
556 0.8463
557 0.8462
558 0.8462
559 0.8462
560 0.8465
561 0.8466
562 0.8465
563 0.8465
564 0.8465
565 0.8465
566 0.8468
567 0.8471
568 0.8472
569 0.8475
570 0.8475
571 0.8477
572 0.8479
573 0.8478
574 0.8479
575 0.8480
576 0.8478
577 0.8478
578 0.8476
579 0.8476
580 0.8479
581 0.8477
582 0.8480
583 0.8483
584 0.8486
585 0.8488
586 0.8487
587 0.8486
588 0.8488
589 0.8488
590 0.8486
591 0.8486
592 0.8487
593 0.8485
594 0.8485
595 0.8485
596 0.8483
597 0.8486
598 0.8488
599 0.8490
600 0.8492
601 0.8488
602 0.8487
603 0.8490
604 0.8492
605 0.8495
606 0.8498
607 0.8496
608 0.8498
609 0.8497
610 0.8495
611 0.8494
612 0.8492
613 0.8490
614 0.8492
615 0.8493
616 0.8493
617 0.8498
618 0.8501
619 0.8501
620 0.8503
621 0.8509
622 0.8508
623 0.8503
624 0.8499
625 0.8501
626 0.8502
627 0.8500
628 0.8498
629 0.8499
630 0.8498
631 0.8500
632 0.8504
633 0.8502
634 0.8501
635 0.8500
636 0.8501
637 0.8508
638 0.8505
639 0.8503
640 0.8504
641 0.8507
642 0.8508
643 0.8507
644 0.8505
645 0.8508
646 0.8511
647 0.8511
648 0.8513
649 0.8515
650 0.8516
651 0.8517
652 0.8518
653 0.8516
654 0.8515
655 0.8518
656 0.8516
657 0.8512
658 0.8512
659 0.8514
660 0.8519
661 0.8518
662 0.8518
663 0.8520
664 0.8520
665 0.8523
666 0.8518
667 0.8516
668 0.8517
669 0.8517
670 0.8521
671 0.8527
672 0.8530
673 0.8530
674 0.8527
675 0.8524
676 0.8524
677 0.8528
678 0.8528
679 0.8529
680 0.8527
681 0.8532
682 0.8535
683 0.8540
684 0.8541
685 0.8537
686 0.8533
687 0.8531
688 0.8531
689 0.8534
690 0.8535
691 0.8536
692 0.8537
693 0.8537
694 0.8536
695 0.8537
696 0.8539
697 0.8543
698 0.8540
699 0.8538
700 0.8536
701 0.8541
702 0.8543
703 0.8543
704 0.8540
705 0.8534
706 0.8535
707 0.8536
708 0.8539
709 0.8540
710 0.8542
711 0.8545
712 0.8547
713 0.8544
714 0.8539
715 0.8537
716 0.8539
717 0.8541
718 0.8546
719 0.8549
720 0.8551
721 0.8547
722 0.8545
723 0.8548
724 0.8550
725 0.8546
726 0.8541
727 0.8542
728 0.8542
729 0.8546
730 0.8549
731 0.8546
732 0.8543
733 0.8547
734 0.8541
735 0.8542
736 0.8545
737 0.8550
738 0.8552
739 0.8552
740 0.8550
741 0.8548
742 0.8551
743 0.8555
744 0.8556
745 0.8552
746 0.8554
747 0.8550
748 0.8546
749 0.8550
750 0.8554
751 0.8554
752 0.8556
753 0.8561
754 0.8563
755 0.8566
756 0.8568
757 0.8567
758 0.8566
759 0.8561
760 0.8558
761 0.8559
762 0.8559
763 0.8563
764 0.8568
765 0.8568
766 0.8563
767 0.8556
768 0.8561
769 0.8570
770 0.8575
771 0.8573
772 0.8575
773 0.8577
774 0.8575
775 0.8569
776 0.8560
777 0.8550
778 0.8554
779 0.8559
780 0.8559
781 0.8562
782 0.8563
783 0.8565
784 0.8567
785 0.8576
786 0.8573
787 0.8570
788 0.8565
789 0.8563
790 0.8562
791 0.8557
792 0.8558
793 0.8568
794 0.8568
795 0.8567
796 0.8568
797 0.8571
798 0.8572
799 0.8567
800 0.8561
801 0.8561
802 0.8564
803 0.8564
804 0.8559
805 0.8556
806 0.8562
807 0.8575
808 0.8584
809 0.8592
810 0.8594
811 0.8591
812 0.8587
813 0.8580
814 0.8578
815 0.8573
816 0.8569
817 0.8556
818 0.8553
819 0.8554
820 0.8557
821 0.8564
822 0.8564
823 0.8560
824 0.8558
825 0.8562
826 0.8562
827 0.8563
828 0.8569
829 0.8556
830 0.8551
831 0.8544
832 0.8542
833 0.8546
834 0.8544
835 0.8542
836 0.8547
837 0.8544
838 0.8545
839 0.8545
840 0.8545
841 0.8551
842 0.8550
843 0.8542
844 0.8541
845 0.8540
846 0.8537
847 0.8534
848 0.8539
849 0.8545
850 0.8563
851 0.8579
852 0.8589
853 0.8596
854 0.8597
855 0.8589
856 0.8598
857 0.8588
858 0.8581
859 0.8587
860 0.8596
861 0.8598
862 0.8599
863 0.8601
864 0.8603
865 0.8602
866 0.8604
867 0.8603
868 0.8603
869 0.8610
870 0.8606
871 0.8606
872 0.8607
873 0.8604
874 0.8607
875 0.8610
876 0.8610
877 0.8617
878 0.8618
879 0.8616
880 0.8615
881 0.8614
882 0.8616
883 0.8622
884 0.8626
885 0.8623
886 0.8621
887 0.8618
888 0.8618
889 0.8627
890 0.8624
891 0.8623
892 0.8625
893 0.8622
894 0.8625
895 0.8626
896 0.8624
897 0.8629
898 0.8629
899 0.8627
900 0.8626
901 0.8622
902 0.8621
903 0.8625
904 0.8628
905 0.8629
906 0.8630
907 0.8628
908 0.8625
909 0.8630
910 0.8630
911 0.8630
912 0.8630
913 0.8629
914 0.8631
915 0.8633
916 0.8630
917 0.8632
918 0.8629
919 0.8627
920 0.8631
921 0.8632
922 0.8629
923 0.8632
924 0.8633
925 0.8630
926 0.8631
927 0.8630
928 0.8629
929 0.8632
930 0.8629
931 0.8630
932 0.8632
933 0.8629
934 0.8630
935 0.8632
936 0.8631
937 0.8632
938 0.8631
939 0.8629
940 0.8630
941 0.8628
942 0.8626
943 0.8630
944 0.8632
945 0.8633
946 0.8635
947 0.8634
948 0.8632
949 0.8638
950 0.8635
951 0.8634
952 0.8634
953 0.8629
954 0.8631
955 0.8633
956 0.8629
957 0.8631
958 0.8630
959 0.8628
960 0.8631
961 0.8632
962 0.8630
963 0.8633
964 0.8633
965 0.8633
966 0.8634
967 0.8631
968 0.8630
969 0.8635
970 0.8633
971 0.8635
972 0.8639
973 0.8635
974 0.8633
975 0.8635
976 0.8634
977 0.8637
978 0.8634
979 0.8632
980 0.8634
981 0.8633
982 0.8634
983 0.8636
984 0.8633
985 0.8634
986 0.8635
987 0.8633
988 0.8634
989 0.8636
990 0.8636
991 0.8639
992 0.8641
993 0.8638
994 0.8638
995 0.8640
996 0.8639
997 0.8640
998 0.8641
999 0.8640
1000 0.8643
1001 0.8643
1002 0.8641
1003 0.8642
1004 0.8640
1005 0.8641
1006 0.8643
1007 0.8641
1008 0.8639
1009 0.8642
1010 0.8640
1011 0.8639
1012 0.8641
1013 0.8639
1014 0.8642
1015 0.8644
1016 0.8644
1017 0.8645
1018 0.8644
1019 0.8643
1020 0.8645
1021 0.8641
1022 0.8641
1023 0.8641
1024 0.8641
1025 0.8641
1026 0.8642
1027 0.8640
1028 0.8640
1029 0.8647
1030 0.8645
1031 0.8649
1032 0.8651
1033 0.8651
1034 0.8652
1035 0.8651
1036 0.8650
1037 0.8651
1038 0.8653
1039 0.8653
1040 0.8654
1041 0.8653
1042 0.8652
1043 0.8654
1044 0.8655
1045 0.8654
1046 0.8656
1047 0.8654
1048 0.8653
1049 0.8656
1050 0.8656
1051 0.8656
1052 0.8660
1053 0.8655
1054 0.8655
1055 0.8656
1056 0.8653
1057 0.8658
1058 0.8657
1059 0.8654
1060 0.8655
1061 0.8657
1062 0.8658
1063 0.8660
1064 0.8659
1065 0.8658
1066 0.8659
1067 0.8657
1068 0.8657
1069 0.8657
1070 0.8655
1071 0.8659
1072 0.8664
1073 0.8664
1074 0.8664
1075 0.8663
1076 0.8662
1077 0.8663
1078 0.8662
1079 0.8660
1080 0.8663
1081 0.8664
1082 0.8665
1083 0.8667
1084 0.8665
1085 0.8664
1086 0.8666
1087 0.8664
1088 0.8663
1089 0.8666
1090 0.8666
1091 0.8668
1092 0.8671
1093 0.8667
1094 0.8669
1095 0.8671
1096 0.8670
1097 0.8672
1098 0.8671
1099 0.8671
1100 0.8672
1101 0.8670
1102 0.8670
1103 0.8673
1104 0.8673
1105 0.8673
1106 0.8672
1107 0.8670
1108 0.8671
1109 0.8671
1110 0.8669
1111 0.8670
1112 0.8670
1113 0.8673
1114 0.8675
1115 0.8675
1116 0.8673
1117 0.8674
1118 0.8674
1119 0.8673
1120 0.8675
1121 0.8675
1122 0.8674
1123 0.8675
1124 0.8674
1125 0.8674
1126 0.8673
1127 0.8672
1128 0.8674
1129 0.8678
1130 0.8677
1131 0.8678
1132 0.8678
1133 0.8676
1134 0.8679
1135 0.8680
1136 0.8679
1137 0.8683
1138 0.8683
1139 0.8681
1140 0.8683
1141 0.8680
1142 0.8680
1143 0.8682
1144 0.8681
1145 0.8681
1146 0.8682
1147 0.8680
1148 0.8680
1149 0.8679
1150 0.8676
1151 0.8677
1152 0.8678
1153 0.8679
1154 0.8683
1155 0.8685
1156 0.8685
1157 0.8688
1158 0.8686
1159 0.8683
1160 0.8682
1161 0.8682
1162 0.8683
1163 0.8684
1164 0.8683
1165 0.8682
1166 0.8683
1167 0.8681
1168 0.8681
1169 0.8680
1170 0.8678
1171 0.8680
1172 0.8682
1173 0.8681
1174 0.8683
1175 0.8683
1176 0.8683
1177 0.8684
1178 0.8683
1179 0.8682
1180 0.8683
1181 0.8682
1182 0.8682
1183 0.8683
1184 0.8681
1185 0.8680
1186 0.8682
1187 0.8681
1188 0.8681
1189 0.8680
1190 0.8681
1191 0.8683
1192 0.8683
1193 0.8680
1194 0.8682
1195 0.8682
1196 0.8682
1197 0.8684
1198 0.8683
1199 0.8685
1200 0.8688
1201 0.8688
1202 0.8689
1203 0.8690
1204 0.8687
1205 0.8685
1206 0.8685
1207 0.8683
1208 0.8683
1209 0.8683
1210 0.8682
1211 0.8685
1212 0.8687
1213 0.8690
1214 0.8693
1215 0.8691
1216 0.8690
1217 0.8687
1218 0.8683
1219 0.8682
1220 0.8682
1221 0.8683
1222 0.8685
1223 0.8686
1224 0.8683
1225 0.8683
1226 0.8685
1227 0.8682
1228 0.8683
1229 0.8682
1230 0.8681
1231 0.8683
1232 0.8683
1233 0.8687
1234 0.8691
1235 0.8689
1236 0.8688
1237 0.8689
1238 0.8687
1239 0.8687
1240 0.8690
1241 0.8688
1242 0.8689
1243 0.8689
1244 0.8687
1245 0.8684
1246 0.8684
1247 0.8681
1248 0.8683
1249 0.8684
1250 0.8684
1251 0.8688
1252 0.8691
1253 0.8692
1254 0.8694
1255 0.8691
1256 0.8688
1257 0.8690
1258 0.8687
1259 0.8686
1260 0.8687
1261 0.8682
1262 0.8681
1263 0.8682
1264 0.8681
1265 0.8686
1266 0.8686
1267 0.8685
1268 0.8686
1269 0.8685
1270 0.8684
1271 0.8684
1272 0.8684
1273 0.8684
1274 0.8687
1275 0.8688
1276 0.8687
1277 0.8689
1278 0.8688
1279 0.8690
1280 0.8691
1281 0.8686
1282 0.8687
1283 0.8687
1284 0.8685
1285 0.8687
1286 0.8686
1287 0.8686
1288 0.8688
1289 0.8691
1290 0.8691
1291 0.8693
1292 0.8693
1293 0.8689
1294 0.8691
1295 0.8689
1296 0.8689
1297 0.8692
1298 0.8690
1299 0.8690
1300 0.8692
1301 0.8691
1302 0.8691
1303 0.8692
1304 0.8690
1305 0.8692
1306 0.8692
1307 0.8692
1308 0.8694
1309 0.8697
1310 0.8697
1311 0.8698
1312 0.8696
1313 0.8692
1314 0.8693
1315 0.8690
1316 0.8689
1317 0.8690
1318 0.8688
1319 0.8690
1320 0.8692
1321 0.8688
1322 0.8690
1323 0.8689
1324 0.8687
1325 0.8688
1326 0.8686
1327 0.8683
1328 0.8685
1329 0.8687
1330 0.8687
1331 0.8690
1332 0.8690
1333 0.8690
1334 0.8693
1335 0.8691
1336 0.8690
1337 0.8693
1338 0.8691
1339 0.8692
1340 0.8694
1341 0.8692
1342 0.8694
1343 0.8693
1344 0.8691
1345 0.8691
1346 0.8690
1347 0.8690
1348 0.8692
1349 0.8694
1350 0.8694
1351 0.8694
1352 0.8692
1353 0.8693
1354 0.8693
1355 0.8692
1356 0.8692
1357 0.8695
1358 0.8694
1359 0.8695
1360 0.8695
1361 0.8695
1362 0.8696
1363 0.8697
1364 0.8694
1365 0.8701
1366 0.8700
1367 0.8696
1368 0.8696
1369 0.8689
1370 0.8688
1371 0.8692
1372 0.8692
1373 0.8693
1374 0.8693
1375 0.8690
1376 0.8691
1377 0.8695
1378 0.8693
1379 0.8692
1380 0.8691
1381 0.8687
1382 0.8690
1383 0.8693
1384 0.8695
1385 0.8696
1386 0.8694
1387 0.8694
1388 0.8696
1389 0.8700
1390 0.8702
1391 0.8705
1392 0.8705
1393 0.8702
1394 0.8701
1395 0.8697
1396 0.8696
1397 0.8701
1398 0.8700
1399 0.8704
1400 0.8707
1401 0.8702
1402 0.8706
1403 0.8708
1404 0.8707
1405 0.8704
1406 0.8701
1407 0.8700
1408 0.8702
1409 0.8702
1410 0.8701
1411 0.8703
1412 0.8701
1413 0.8702
1414 0.8702
1415 0.8701
1416 0.8702
1417 0.8704
1418 0.8703
1419 0.8704
1420 0.8705
1421 0.8703
1422 0.8707
1423 0.8709
1424 0.8708
1425 0.8710
1426 0.8708
1427 0.8708
1428 0.8710
1429 0.8706
1430 0.8704
1431 0.8705
1432 0.8703
1433 0.8702
1434 0.8704
1435 0.8705
1436 0.8706
1437 0.8708
1438 0.8707
1439 0.8710
1440 0.8711
1441 0.8707
1442 0.8710
1443 0.8711
1444 0.8710
1445 0.8714
1446 0.8713
1447 0.8712
1448 0.8714
1449 0.8708
1450 0.8707
1451 0.8710
1452 0.8710
1453 0.8711
1454 0.8711
1455 0.8710
1456 0.8710
1457 0.8710
1458 0.8708
1459 0.8710
1460 0.8710
1461 0.8710
1462 0.8715
1463 0.8716
1464 0.8714
1465 0.8716
1466 0.8715
1467 0.8715
1468 0.8718
1469 0.8716
1470 0.8716
1471 0.8716
1472 0.8715
1473 0.8715
1474 0.8714
1475 0.8712
1476 0.8711
1477 0.8712
1478 0.8712
1479 0.8713
1480 0.8713
1481 0.8709
1482 0.8711
1483 0.8711
1484 0.8711
1485 0.8718
1486 0.8716
1487 0.8717
1488 0.8720
1489 0.8719
1490 0.8720
1491 0.8722
1492 0.8719
1493 0.8719
1494 0.8719
1495 0.8718
1496 0.8718
1497 0.8719
1498 0.8717
1499 0.8719
1500 0.8721
1501 0.8717
1502 0.8719
1503 0.8718
1504 0.8716
1505 0.8719
1506 0.8717
1507 0.8718
1508 0.8721
1509 0.8719
1510 0.8721
1511 0.8722
1512 0.8719
1513 0.8720
1514 0.8718
1515 0.8715
1516 0.8716
1517 0.8718
1518 0.8716
1519 0.8719
1520 0.8720
1521 0.8720
1522 0.8723
1523 0.8724
1524 0.8721
1525 0.8724
1526 0.8721
1527 0.8721
1528 0.8723
1529 0.8722
1530 0.8725
1531 0.8727
1532 0.8725
1533 0.8724
1534 0.8720
1535 0.8718
1536 0.8720
1537 0.8722
1538 0.8721
1539 0.8723
1540 0.8724
1541 0.8722
1542 0.8724
1543 0.8722
1544 0.8721
1545 0.8724
1546 0.8723
1547 0.8726
1548 0.8727
1549 0.8725
1550 0.8726
1551 0.8727
1552 0.8725
1553 0.8725
1554 0.8724
1555 0.8722
1556 0.8724
1557 0.8724
1558 0.8723
1559 0.8726
1560 0.8726
1561 0.8725
1562 0.8725
1563 0.8723
1564 0.8721
1565 0.8726
1566 0.8722
1567 0.8724
1568 0.8727
1569 0.8724
1570 0.8728
1571 0.8729
1572 0.8725
1573 0.8727
1574 0.8727
1575 0.8726
1576 0.8728
1577 0.8732
1578 0.8731
1579 0.8733
1580 0.8733
1581 0.8727
1582 0.8729
1583 0.8728
1584 0.8729
1585 0.8734
1586 0.8732
1587 0.8734
1588 0.8736
1589 0.8727
1590 0.8728
1591 0.8729
1592 0.8726
1593 0.8728
1594 0.8727
1595 0.8727
1596 0.8730
1597 0.8729
1598 0.8728
1599 0.8729
1600 0.8729
1601 0.8726
1602 0.8727
1603 0.8725
1604 0.8725
1605 0.8733
1606 0.8730
1607 0.8732
1608 0.8733
1609 0.8730
1610 0.8733
1611 0.8734
1612 0.8733
1613 0.8732
1614 0.8733
1615 0.8732
1616 0.8734
1617 0.8736
1618 0.8736
1619 0.8741
1620 0.8740
1621 0.8732
1622 0.8735
1623 0.8734
1624 0.8733
1625 0.8737
1626 0.8737
1627 0.8741
1628 0.8743
1629 0.8736
1630 0.8738
1631 0.8738
1632 0.8735
1633 0.8735
1634 0.8733
1635 0.8731
1636 0.8733
1637 0.8732
1638 0.8732
1639 0.8734
1640 0.8734
1641 0.8735
1642 0.8738
1643 0.8735
1644 0.8733
1645 0.8736
1646 0.8736
1647 0.8739
1648 0.8742
1649 0.8739
1650 0.8741
1651 0.8740
1652 0.8733
1653 0.8737
1654 0.8736
1655 0.8735
1656 0.8739
1657 0.8735
1658 0.8734
1659 0.8736
1660 0.8733
1661 0.8732
1662 0.8736
1663 0.8735
1664 0.8736
1665 0.8739
1666 0.8737
1667 0.8740
1668 0.8745
1669 0.8746
1670 0.8746
1671 0.8746
1672 0.8743
1673 0.8747
1674 0.8747
1675 0.8746
1676 0.8749
1677 0.8749
1678 0.8750
1679 0.8752
1680 0.8749
1681 0.8748
1682 0.8747
1683 0.8745
1684 0.8746
1685 0.8750
1686 0.8748
1687 0.8749
1688 0.8750
1689 0.8747
1690 0.8749
1691 0.8750
1692 0.8751
1693 0.8754
1694 0.8752
1695 0.8751
1696 0.8752
1697 0.8752
1698 0.8751
1699 0.8752
1700 0.8751
1701 0.8750
1702 0.8752
1703 0.8750
1704 0.8750
1705 0.8752
1706 0.8750
1707 0.8753
1708 0.8754
1709 0.8750
1710 0.8751
1711 0.8749
1712 0.8748
1713 0.8752
1714 0.8751
1715 0.8751
1716 0.8754
1717 0.8752
1718 0.8752
1719 0.8754
1720 0.8754
1721 0.8752
1722 0.8752
1723 0.8751
1724 0.8751
1725 0.8752
1726 0.8750
1727 0.8750
1728 0.8751
1729 0.8749
1730 0.8751
1731 0.8751
1732 0.8750
1733 0.8755
1734 0.8753
1735 0.8750
1736 0.8751
1737 0.8748
1738 0.8750
1739 0.8752
1740 0.8749
1741 0.8749
1742 0.8750
1743 0.8749
1744 0.8751
1745 0.8751
1746 0.8751
1747 0.8753
1748 0.8753
1749 0.8755
1750 0.8758
1751 0.8759
1752 0.8757
1753 0.8759
1754 0.8759
1755 0.8757
1756 0.8758
1757 0.8756
1758 0.8756
1759 0.8758
1760 0.8758
1761 0.8762
1762 0.8762
1763 0.8759
1764 0.8758
1765 0.8759
1766 0.8757
1767 0.8759
1768 0.8759
1769 0.8757
1770 0.8758
1771 0.8758
1772 0.8759
1773 0.8763
1774 0.8761
1775 0.8758
1776 0.8757
1777 0.8756
1778 0.8755
1779 0.8754
1780 0.8749
1781 0.8743
1782 0.8745
1783 0.8745
1784 0.8750
1785 0.8753
1786 0.8751
1787 0.8754
1788 0.8754
1789 0.8754
1790 0.8756
1791 0.8754
1792 0.8754
1793 0.8757
1794 0.8754
1795 0.8754
1796 0.8754
1797 0.8753
1798 0.8752
1799 0.8753
1800 0.8752
1801 0.8754
1802 0.8756
1803 0.8752
1804 0.8751
1805 0.8752
1806 0.8750
1807 0.8754
1808 0.8754
1809 0.8756
1810 0.8757
1811 0.8757
1812 0.8757
1813 0.8757
1814 0.8757
1815 0.8756
1816 0.8758
1817 0.8757
1818 0.8757
1819 0.8758
1820 0.8756
1821 0.8757
1822 0.8756
1823 0.8755
1824 0.8756
1825 0.8756
1826 0.8754
1827 0.8755
1828 0.8756
1829 0.8756
1830 0.8757
1831 0.8758
1832 0.8756
1833 0.8757
1834 0.8756
1835 0.8758
1836 0.8762
1837 0.8760
1838 0.8758
1839 0.8758
1840 0.8756
1841 0.8760
1842 0.8759
1843 0.8755
1844 0.8753
1845 0.8755
1846 0.8758
1847 0.8762
1848 0.8764
1849 0.8763
1850 0.8764
1851 0.8764
1852 0.8762
1853 0.8766
1854 0.8764
1855 0.8762
1856 0.8762
1857 0.8761
1858 0.8762
1859 0.8764
1860 0.8761
1861 0.8760
1862 0.8760
1863 0.8760
1864 0.8759
1865 0.8758
1866 0.8760
1867 0.8764
1868 0.8767
1869 0.8771
1870 0.8772
1871 0.8772
1872 0.8773
1873 0.8772
1874 0.8770
1875 0.8770
1876 0.8771
1877 0.8768
1878 0.8766
1879 0.8765
1880 0.8764
1881 0.8767
1882 0.8766
1883 0.8762
1884 0.8761
1885 0.8763
1886 0.8763
1887 0.8766
1888 0.8767
1889 0.8765
1890 0.8764
1891 0.8763
1892 0.8764
1893 0.8764
1894 0.8761
1895 0.8758
1896 0.8757
1897 0.8757
1898 0.8758
1899 0.8762
1900 0.8763
1901 0.8765
1902 0.8766
1903 0.8764
1904 0.8764
1905 0.8760
1906 0.8758
1907 0.8758
1908 0.8758
1909 0.8756
1910 0.8754
1911 0.8752
1912 0.8749
1913 0.8753
1914 0.8752
1915 0.8753
1916 0.8758
1917 0.8757
1918 0.8757
1919 0.8758
1920 0.8758
1921 0.8762
1922 0.8761
1923 0.8761
1924 0.8763
1925 0.8767
1926 0.8768
1927 0.8769
1928 0.8769
1929 0.8767
1930 0.8767
1931 0.8767
1932 0.8766
1933 0.8766
1934 0.8766
1935 0.8768
1936 0.8772
1937 0.8773
1938 0.8772
1939 0.8770
1940 0.8769
1941 0.8772
1942 0.8772
1943 0.8773
1944 0.8775
1945 0.8773
1946 0.8771
1947 0.8771
1948 0.8771
1949 0.8776
1950 0.8776
1951 0.8775
1952 0.8774
1953 0.8772
1954 0.8772
1955 0.8774
1956 0.8774
1957 0.8770
1958 0.8770
1959 0.8772
1960 0.8773
1961 0.8774
1962 0.8775
1963 0.8774
1964 0.8774
1965 0.8772
1966 0.8771
1967 0.8773
1968 0.8774
1969 0.8775
1970 0.8777
1971 0.8776
1972 0.8774
1973 0.8772
1974 0.8771
1975 0.8771
1976 0.8771
1977 0.8773
1978 0.8773
1979 0.8774
1980 0.8776
1981 0.8780
1982 0.8780
1983 0.8780
1984 0.8779
1985 0.8780
1986 0.8779
1987 0.8778
1988 0.8778
1989 0.8779
1990 0.8779
1991 0.8779
1992 0.8778
1993 0.8777
1994 0.8777
1995 0.8777
1996 0.8779
1997 0.8778
1998 0.8777
1999 0.8778
2000 0.8779
2001 0.8781
2002 0.8780
2003 0.8780
2004 0.8782
2005 0.8781
2006 0.8779
2007 0.8779
2008 0.8778
2009 0.8779
2010 0.8776
2011 0.8778
2012 0.8782
2013 0.8778
2014 0.8777
2015 0.8776
2016 0.8775
2017 0.8778
2018 0.8776
2019 0.8780
2020 0.8779
2021 0.8778
2022 0.8780
2023 0.8782
2024 0.8781
2025 0.8780
2026 0.8780
2027 0.8781
2028 0.8780
2029 0.8780
2030 0.8782
2031 0.8783
2032 0.8782
2033 0.8781
2034 0.8782
2035 0.8783
2036 0.8783
2037 0.8778
2038 0.8773
2039 0.8771
2040 0.8772
2041 0.8773
2042 0.8773
2043 0.8775
2044 0.8780
2045 0.8780
2046 0.8777
2047 0.8776
2048 0.8777
2049 0.8778
2050 0.8781
2051 0.8783
2052 0.8780
2053 0.8777
2054 0.8778
2055 0.8779
2056 0.8777
2057 0.8778
2058 0.8778
2059 0.8779
2060 0.8781
2061 0.8782
2062 0.8781
2063 0.8779
2064 0.8779
2065 0.8784
2066 0.8783
2067 0.8782
2068 0.8783
2069 0.8782
2070 0.8782
2071 0.8784
2072 0.8784
2073 0.8784
2074 0.8783
2075 0.8783
2076 0.8783
2077 0.8786
2078 0.8785
2079 0.8786
2080 0.8786
2081 0.8780
2082 0.8781
2083 0.8781
2084 0.8780
2085 0.8782
2086 0.8781
2087 0.8782
2088 0.8785
2089 0.8787
2090 0.8790
2091 0.8789
2092 0.8786
2093 0.8783
2094 0.8782
2095 0.8784
2096 0.8785
2097 0.8786
2098 0.8786
2099 0.8785
2100 0.8786
2101 0.8784
2102 0.8784
2103 0.8785
2104 0.8784
2105 0.8784
2106 0.8781
2107 0.8781
2108 0.8784
2109 0.8785
2110 0.8784
2111 0.8784
2112 0.8783
2113 0.8783
2114 0.8784
2115 0.8784
2116 0.8784
2117 0.8786
2118 0.8785
2119 0.8786
2120 0.8785
2121 0.8783
2122 0.8784
2123 0.8784
2124 0.8785
2125 0.8788
2126 0.8786
2127 0.8787
2128 0.8787
2129 0.8787
2130 0.8787
2131 0.8788
2132 0.8789
2133 0.8787
2134 0.8788
2135 0.8788
2136 0.8786
2137 0.8789
2138 0.8786
2139 0.8785
2140 0.8787
2141 0.8788
2142 0.8789
2143 0.8789
2144 0.8789
2145 0.8789
2146 0.8788
2147 0.8789
2148 0.8792
2149 0.8793
2150 0.8791
2151 0.8792
2152 0.8792
2153 0.8793
2154 0.8792
2155 0.8790
2156 0.8789
2157 0.8789
2158 0.8786
2159 0.8787
2160 0.8787
2161 0.8789
2162 0.8791
2163 0.8791
2164 0.8791
2165 0.8791
2166 0.8789
2167 0.8789
2168 0.8788
2169 0.8785
2170 0.8784
2171 0.8787
2172 0.8786
2173 0.8787
2174 0.8788
2175 0.8787
2176 0.8788
2177 0.8787
2178 0.8785
2179 0.8784
2180 0.8782
2181 0.8781
2182 0.8783
2183 0.8784
2184 0.8783
2185 0.8781
2186 0.8777
2187 0.8778
2188 0.8778
2189 0.8775
2190 0.8773
2191 0.8776
2192 0.8778
2193 0.8776
2194 0.8772
2195 0.8769
2196 0.8768
2197 0.8765
2198 0.8763
2199 0.8765
2200 0.8769
2201 0.8766
2202 0.8766
2203 0.8766
2204 0.8763
2205 0.8769
2206 0.8767
2207 0.8767
2208 0.8769
2209 0.8768
2210 0.8770
2211 0.8772
2212 0.8769
2213 0.8770
2214 0.8768
2215 0.8768
2216 0.8770
2217 0.8767
2218 0.8766
2219 0.8764
2220 0.8766
2221 0.8768
2222 0.8770
2223 0.8774
2224 0.8775
2225 0.8774
2226 0.8772
2227 0.8772
2228 0.8776
2229 0.8773
2230 0.8772
2231 0.8775
2232 0.8772
2233 0.8775
2234 0.8775
2235 0.8775
2236 0.8777
2237 0.8776
2238 0.8774
2239 0.8777
2240 0.8779
2241 0.8778
2242 0.8777
2243 0.8774
2244 0.8772
2245 0.8774
2246 0.8773
2247 0.8773
2248 0.8773
2249 0.8769
2250 0.8770
2251 0.8770
2252 0.8769
2253 0.8765
2254 0.8765
2255 0.8764
2256 0.8765
2257 0.8768
2258 0.8767
2259 0.8768
2260 0.8766
2261 0.8763
2262 0.8765
2263 0.8764
2264 0.8762
2265 0.8764
2266 0.8764
2267 0.8763
2268 0.8763
2269 0.8760
2270 0.8759
2271 0.8759
2272 0.8758
2273 0.8761
2274 0.8761
2275 0.8760
2276 0.8762
2277 0.8763
2278 0.8763
2279 0.8767
2280 0.8769
2281 0.8765
2282 0.8765
2283 0.8764
2284 0.8762
2285 0.8765
2286 0.8766
2287 0.8766
2288 0.8765
2289 0.8763
2290 0.8765
2291 0.8768
2292 0.8766
2293 0.8768
2294 0.8768
2295 0.8766
2296 0.8767
2297 0.8772
2298 0.8772
2299 0.8774
2300 0.8775
2301 0.8774
2302 0.8774
2303 0.8772
2304 0.8772
2305 0.8776
2306 0.8775
2307 0.8775
2308 0.8776
2309 0.8777
2310 0.8780
2311 0.8782
2312 0.8777
2313 0.8779
2314 0.8780
2315 0.8778
2316 0.8778
2317 0.8780
2318 0.8777
2319 0.8778
2320 0.8781
2321 0.8777
2322 0.8780
2323 0.8781
2324 0.8778
2325 0.8781
2326 0.8779
2327 0.8780
2328 0.8781
2329 0.8778
2330 0.8781
2331 0.8781
2332 0.8779
2333 0.8780
2334 0.8779
2335 0.8778
2336 0.8778
2337 0.8778
2338 0.8776
2339 0.8775
2340 0.8775
2341 0.8774
2342 0.8775
2343 0.8775
2344 0.8773
2345 0.8778
2346 0.8774
2347 0.8776
2348 0.8780
2349 0.8776
2350 0.8780
2351 0.8781
2352 0.8776
2353 0.8778
2354 0.8776
2355 0.8774
2356 0.8775
2357 0.8777
2358 0.8775
2359 0.8778
2360 0.8778
2361 0.8775
2362 0.8777
2363 0.8775
2364 0.8774
2365 0.8777
2366 0.8776
2367 0.8778
2368 0.8779
2369 0.8777
2370 0.8780
2371 0.8780
2372 0.8776
2373 0.8779
2374 0.8779
2375 0.8779
2376 0.8780
2377 0.8780
2378 0.8776
2379 0.8780
2380 0.8781
2381 0.8783
2382 0.8784
2383 0.8781
2384 0.8781
2385 0.8781
2386 0.8778
2387 0.8779
2388 0.8781
2389 0.8779
2390 0.8782
2391 0.8785
2392 0.8782
2393 0.8784
2394 0.8783
2395 0.8780
2396 0.8783
2397 0.8785
2398 0.8783
2399 0.8783
2400 0.8782
2401 0.8782
2402 0.8785
2403 0.8784
2404 0.8782
2405 0.8778
2406 0.8775
2407 0.8775
2408 0.8776
2409 0.8773
2410 0.8776
2411 0.8777
2412 0.8775
2413 0.8778
2414 0.8774
2415 0.8772
2416 0.8774
2417 0.8771
2418 0.8772
2419 0.8776
2420 0.8774
2421 0.8771
2422 0.8770
2423 0.8766
2424 0.8763
2425 0.8760
2426 0.8753
2427 0.8748
2428 0.8746
2429 0.8735
2430 0.8737
2431 0.8743
2432 0.8748
2433 0.8773
2434 0.8775
2435 0.8775
2436 0.8777
2437 0.8779
2438 0.8782
2439 0.8784
2440 0.8783
2441 0.8784
2442 0.8785
2443 0.8784
2444 0.8786
2445 0.8790
2446 0.8788
2447 0.8788
2448 0.8788
2449 0.8785
2450 0.8790
2451 0.8792
2452 0.8789
2453 0.8791
2454 0.8790
2455 0.8790
2456 0.8796
2457 0.8796
2458 0.8796
2459 0.8798
2460 0.8795
2461 0.8795
2462 0.8795
2463 0.8791
2464 0.8792
2465 0.8796
2466 0.8793
2467 0.8793
2468 0.8793
2469 0.8787
2470 0.8787
2471 0.8786
2472 0.8785
2473 0.8793
2474 0.8791
2475 0.8789
2476 0.8792
2477 0.8787
2478 0.8788
2479 0.8792
2480 0.8792
2481 0.8791
2482 0.8792
2483 0.8787
2484 0.8786
2485 0.8790
2486 0.8788
2487 0.8788
2488 0.8789
2489 0.8786
2490 0.8789
2491 0.8789
2492 0.8786
2493 0.8788
2494 0.8784
2495 0.8784
2496 0.8788
2497 0.8786
2498 0.8788
2499 0.8791
2500 0.8789
2501 0.8791
2502 0.8792
2503 0.8788
2504 0.8786
2505 0.8789
2506 0.8785
2507 0.8786
2508 0.8788
2509 0.8780
2510 0.8781
2511 0.8778
2512 0.8774
2513 0.8779
2514 0.8777
2515 0.8777
2516 0.8782
2517 0.8777
2518 0.8778
2519 0.8780
2520 0.8777
2521 0.8778
2522 0.8775
2523 0.8769
2524 0.8769
2525 0.8771
2526 0.8767
2527 0.8768
2528 0.8767
2529 0.8762
2530 0.8766
2531 0.8764
2532 0.8762
2533 0.8768
2534 0.8765
2535 0.8765
2536 0.8771
2537 0.8768
2538 0.8770
2539 0.8775
2540 0.8773
2541 0.8771
2542 0.8771
2543 0.8766
2544 0.8765
2545 0.8765
2546 0.8760
2547 0.8763
2548 0.8767
2549 0.8764
2550 0.8769
2551 0.8768
2552 0.8768
2553 0.8775
2554 0.8771
2555 0.8770
2556 0.8774
2557 0.8776
2558 0.8777
2559 0.8782
2560 0.8779
2561 0.8777
2562 0.8778
2563 0.8777
2564 0.8780
2565 0.8787
2566 0.8785
2567 0.8789
2568 0.8792
2569 0.8788
2570 0.8793
2571 0.8792
2572 0.8788
2573 0.8790
2574 0.8786
2575 0.8784
2576 0.8788
2577 0.8780
2578 0.8781
2579 0.8784
2580 0.8782
2581 0.8785
2582 0.8784
2583 0.8779
2584 0.8782
2585 0.8787
2586 0.8785
2587 0.8791
2588 0.8796
2589 0.8796
2590 0.8800
2591 0.8801
2592 0.8802
2593 0.8809
2594 0.8804
2595 0.8800
2596 0.8803
2597 0.8800
2598 0.8804
2599 0.8809
2600 0.8804
2601 0.8801
2602 0.8798
2603 0.8793
2604 0.8797
2605 0.8797
2606 0.8795
2607 0.8800
2608 0.8801
2609 0.8795
2610 0.8801
2611 0.8799
2612 0.8797
2613 0.8798
2614 0.8793
2615 0.8790
2616 0.8792
2617 0.8780
2618 0.8778
2619 0.8775
2620 0.8767
2621 0.8766
2622 0.8766
2623 0.8766
2624 0.8768
2625 0.8769
2626 0.8766
2627 0.8767
2628 0.8766
2629 0.8759
2630 0.8759
2631 0.8758
2632 0.8757
2633 0.8767
2634 0.8766
2635 0.8767
2636 0.8770
2637 0.8764
2638 0.8763
2639 0.8763
2640 0.8757
2641 0.8751
2642 0.8747
2643 0.8744
2644 0.8744
2645 0.8738
2646 0.8734
2647 0.8731
2648 0.8726
2649 0.8708
2650 0.8699
2651 0.8688
2652 0.8677
2653 0.8663
2654 0.8654
2655 0.8648
2656 0.8646
2657 0.8642
2658 0.8645
2659 0.8649
2660 0.8646
2661 0.8652
2662 0.8656
2663 0.8658
2664 0.8661
2665 0.8665
2666 0.8666
2667 0.8668
2668 0.8668
2669 0.8667
2670 0.8670
2671 0.8666
2672 0.8658
2673 0.8650
2674 0.8643
2675 0.8638
2676 0.8633
2677 0.8612
2678 0.8602
2679 0.8590
2680 0.8574
2681 0.8555
2682 0.8542
2683 0.8527
2684 0.8512
2685 0.8476
2686 0.8454
2687 0.8432
2688 0.8406
2689 0.8351
2690 0.8325
2691 0.8295
2692 0.8262
2693 0.8198
2694 0.8161
2695 0.8128
2696 0.8098
2697 0.8039
2698 0.8013
2699 0.7991
2700 0.7966
2701 0.7920
2702 0.7896
2703 0.7872
2704 0.7850
2705 0.7805
2706 0.7782
2707 0.7765
2708 0.7747
2709 0.7715
2710 0.7708
2711 0.7699
2712 0.7689
2713 0.7681
2714 0.7676
2715 0.7671
2716 0.7668
2717 0.7659
2718 0.7658
2719 0.7658
2720 0.7655
2721 0.7657
2722 0.7659
2723 0.7660
2724 0.7665
2725 0.7670
2726 0.7670
2727 0.7672
2728 0.7672
2729 0.7674
2730 0.7675
2731 0.7676
2732 0.7676
2733 0.7684
2734 0.7685
2735 0.7690
2736 0.7699
2737 0.7712
2738 0.7723
2739 0.7734
2740 0.7744
2741 0.7770
2742 0.7781
2743 0.7789
2744 0.7794
2745 0.7801
2746 0.7807
2747 0.7814
2748 0.7815
2749 0.7813
2750 0.7816
2751 0.7819
2752 0.7820
2753 0.7834
2754 0.7841
2755 0.7853
2756 0.7868
2757 0.7895
2758 0.7909
2759 0.7923
2760 0.7934
2761 0.7959
2762 0.7969
2763 0.7977
2764 0.7988
2765 0.8007
2766 0.8011
2767 0.8017
2768 0.8021
2769 0.8037
2770 0.8048
2771 0.8057
2772 0.8064
2773 0.8076
2774 0.8079
2775 0.8084
2776 0.8088
2777 0.8099
2778 0.8106
2779 0.8112
2780 0.8117
2781 0.8134
2782 0.8140
2783 0.8146
2784 0.8153
2785 0.8166
2786 0.8173
2787 0.8183
2788 0.8191
2789 0.8206
2790 0.8215
2791 0.8220
2792 0.8226
2793 0.8242
2794 0.8247
2795 0.8254
2796 0.8259
2797 0.8266
2798 0.8270
2799 0.8274
2800 0.8273
2801 0.8278
2802 0.8285
2803 0.8292
2804 0.8299
2805 0.8318
2806 0.8328
2807 0.8340
2808 0.8349
2809 0.8359
2810 0.8365
2811 0.8367
2812 0.8370
2813 0.8379
2814 0.8379
2815 0.8380
2816 0.8380
2817 0.8378
2818 0.8380
2819 0.8378
2820 0.8375
2821 0.8370
2822 0.8365
2823 0.8361
2824 0.8364
2825 0.8382
2826 0.8393
2827 0.8409
2828 0.8422
2829 0.8456
2830 0.8473
2831 0.8483
2832 0.8492
2833 0.8502
2834 0.8505
2835 0.8510
2836 0.8515
2837 0.8522
2838 0.8530
2839 0.8535
2840 0.8537
2841 0.8541
2842 0.8543
2843 0.8544
2844 0.8544
2845 0.8547
2846 0.8548
2847 0.8549
2848 0.8547
2849 0.8546
2850 0.8549
2851 0.8551
2852 0.8552
2853 0.8561
2854 0.8563
2855 0.8567
2856 0.8570
2857 0.8572
2858 0.8574
2859 0.8573
2860 0.8572
2861 0.8576
2862 0.8575
2863 0.8574
2864 0.8575
2865 0.8575
2866 0.8576
2867 0.8577
2868 0.8577
2869 0.8577
2870 0.8579
2871 0.8577
2872 0.8577
2873 0.8578
2874 0.8575
2875 0.8577
2876 0.8581
2877 0.8580
2878 0.8582
2879 0.8582
2880 0.8579
2881 0.8579
2882 0.8577
2883 0.8573
2884 0.8574
2885 0.8574
2886 0.8576
2887 0.8578
2888 0.8577
2889 0.8574
2890 0.8574
2891 0.8572
2892 0.8571
2893 0.8577
2894 0.8577
2895 0.8580
2896 0.8583
2897 0.8577
2898 0.8580
2899 0.8580
2900 0.8577
2901 0.8580
2902 0.8580
2903 0.8579
2904 0.8580
2905 0.8577
2906 0.8576
2907 0.8578
2908 0.8579
2909 0.8580
2910 0.8580
2911 0.8575
2912 0.8573
2913 0.8571
2914 0.8569
2915 0.8569
2916 0.8568
2917 0.8569
2918 0.8572
2919 0.8571
2920 0.8568
2921 0.8568
2922 0.8566
2923 0.8564
2924 0.8567
2925 0.8567
2926 0.8568
2927 0.8569
2928 0.8569
2929 0.8569
2930 0.8566
2931 0.8560
2932 0.8557
2933 0.8561
2934 0.8560
2935 0.8563
2936 0.8564
2937 0.8557
2938 0.8560
2939 0.8559
2940 0.8556
2941 0.8565
2942 0.8563
2943 0.8560
2944 0.8563
2945 0.8562
2946 0.8564
2947 0.8565
2948 0.8564
2949 0.8557
2950 0.8559
2951 0.8557
2952 0.8554
2953 0.8555
2954 0.8562
2955 0.8570
2956 0.8573
2957 0.8564
2958 0.8563
2959 0.8560
2960 0.8554
2961 0.8557
2962 0.8557
2963 0.8551
2964 0.8549
2965 0.8548
2966 0.8546
2967 0.8542
2968 0.8536
2969 0.8540
2970 0.8546
2971 0.8544
2972 0.8547
2973 0.8556
2974 0.8559
2975 0.8556
2976 0.8551
2977 0.8541
2978 0.8539
2979 0.8537
2980 0.8539
2981 0.8549
2982 0.8547
2983 0.8548
2984 0.8550
2985 0.8557
2986 0.8557
2987 0.8555
2988 0.8550
2989 0.8538
2990 0.8538
2991 0.8534
2992 0.8536
2993 0.8540
2994 0.8539
2995 0.8535
2996 0.8540
2997 0.8539
2998 0.8541
2999 0.8538
3000 0.8535
3001 0.8540
3002 0.8541
3003 0.8537
3004 0.8531
3005 0.8531
3006 0.8534
3007 0.8535
3008 0.8539
3009 0.8545
3010 0.8549
3011 0.8544
3012 0.8541
3013 0.8541
3014 0.8539
3015 0.8537
3016 0.8541
3017 0.8548
3018 0.8551
3019 0.8547
3020 0.8541
3021 0.8543
3022 0.8539
3023 0.8536
3024 0.8546
3025 0.8550
3026 0.8557
3027 0.8559
3028 0.8559
3029 0.8553
3030 0.8556
3031 0.8551
3032 0.8550
3033 0.8544
3034 0.8547
3035 0.8547
3036 0.8547
3037 0.8538
3038 0.8534
3039 0.8529
3040 0.8527
3041 0.8539
3042 0.8537
3043 0.8529
3044 0.8533
3045 0.8549
3046 0.8550
3047 0.8551
3048 0.8548
3049 0.8537
3050 0.8545
3051 0.8542
3052 0.8535
3053 0.8512
3054 0.8512
3055 0.8527
3056 0.8546
3057 0.8552
3058 0.8550
3059 0.8539
3060 0.8528
3061 0.8537
3062 0.8548
3063 0.8541
3064 0.8543
3065 0.8552
3066 0.8559
3067 0.8563
3068 0.8556
3069 0.8530
3070 0.8524
3071 0.8524
3072 0.8523
3073 0.8508
3074 0.8519
3075 0.8523
3076 0.8528
3077 0.8538
3078 0.8544
3079 0.8547
3080 0.8551
3081 0.8554
3082 0.8553
3083 0.8547
3084 0.8547
3085 0.8565
3086 0.8572
3087 0.8569
3088 0.8568
3089 0.8521
3090 0.8519
3091 0.8520
3092 0.8517
3093 0.8514
3094 0.8518
3095 0.8511
3096 0.8514
3097 0.8532
3098 0.8546
3099 0.8552
3100 0.8563
3101 0.8578
3102 0.8583
3103 0.8571
3104 0.8564
3105 0.8561
3106 0.8560
3107 0.8562
3108 0.8563
3109 0.8529
3110 0.8519
3111 0.8508
3112 0.8502
3113 0.8522
3114 0.8536
3115 0.8535
3116 0.8549
3117 0.8570
3118 0.8569
3119 0.8563
3120 0.8558
3121 0.8581
3122 0.8591
3123 0.8576
3124 0.8554
3125 0.8518
3126 0.8521
3127 0.8529
3128 0.8541
3129 0.8551
3130 0.8572
3131 0.8582
3132 0.8567
3133 0.8550
3134 0.8560
3135 0.8552
3136 0.8570
3137 0.8596
3138 0.8597
3139 0.8597
3140 0.8596
3141 0.8573
3142 0.8579
3143 0.8559
3144 0.8560
3145 0.8573
3146 0.8574
3147 0.8571
3148 0.8572
3149 0.8553
3150 0.8554
3151 0.8566
3152 0.8565
3153 0.8561
3154 0.8553
3155 0.8545
3156 0.8555
3157 0.8541
3158 0.8538
3159 0.8557
3160 0.8578
3161 0.8577
3162 0.8585
3163 0.8586
3164 0.8601
3165 0.8666
3166 0.8672
3167 0.8659
3168 0.8642
3169 0.8579
3170 0.8598
3171 0.8609
3172 0.8595
3173 0.8585
3174 0.8582
3175 0.8568
3176 0.8577
3177 0.8554
3178 0.8537
3179 0.8540
3180 0.8539
3181 0.8562
3182 0.8575
3183 0.8581
3184 0.8582
3185 0.8589
3186 0.8581
3187 0.8586
3188 0.8615
3189 0.8576
3190 0.8601
3191 0.8621
3192 0.8624
3193 0.8619
3194 0.8585
3195 0.8527
3196 0.8527
3197 0.8527
3198 0.8482
3199 0.8443
3200 0.8435
##END=
